0,1,2,3,4,5,6,7,8,9,10,11,12,13,14,15,16,17,18,19,20,21,22,23,24,25,26,27,28,29,30,31,32,33,34,35,36,37,38,39,40,41,42,43,44,45,46,47,48,49,50,51,52,53,54,55,56,57,58,59,60,61,62,63,64,65,66,67,68,69,70,71,72,73,74,75,76,77,78,79,80,81,82,83,84,85,86,87,88,89,90,91,92,93,94,95,96,97,98,99,100,101,102,103,104,105,106,107,108,109,110,111,112,113,114,115,116,117,118,119,120,121,122,123,124,125,126,127,128,129,130,131,132,133,134,135,136,137,138,139,140,141,142,143,144,145,146,147,148,149,150,151,152,153,154,155,156,157,158,159
370.0,372.0,206.0,640.0,115.0,171.0,422.0,126.0,495.0,283.0,539.0,416.0,302.0,434.0,211.0,267.0,831.0,767.0,244.0,267.0,582.0,1073.0,693.0,161.0,315.0,496.0,348.0,253.0,495.0,909.0,437.0,326.0,151.0,522.0,571.0,756.0,167.0,994.0,407.0,546.0,823.0,266.0,153.0,918.0,187.0,1110.0,400.0,795.0,285.0,484.0,248.0,612.0,412.0,425.0,505.0,1188.0,221.0,724.0,422.0,89.0,1077.0,158.0,712.0,453.0,502.0,273.0,217.0,150.0,119.0,162.0,106.0,99.0,96.0,87.0,101.0,94.0,112.0,88.0,112.0,84.0,117.0,75.0,100.0,83.0,107.0,77.0,109.0,0.0,0.0,0.0,0.0,0.0,0.0,0.0,0.0,0.0,0.0,0.0,0.0,0.0,0.0,0.0,0.0,0.0,0.0,0.0,0.0,0.0,0.0,0.0,0.0,0.0,0.0,0.0,0.0,0.0,0.0,0.0,0.0,0.0,0.0,0.0,0.0,0.0,0.0,0.0,0.0,0.0,0.0,0.0,0.0,0.0,0.0,0.0,0.0,0.0,0.0,0.0,0.0,0.0,0.0,0.0,0.0,0.0,0.0,0.0,0.0,0.0,0.0,0.0,0.0,0.0,0.0,0.0,0.0,0.0,0.0,0.0,0.0,0.0
291.0,220.0,628.0,347.0,555.0,183.0,170.0,101.0,1066.0,409.0,423.0,62.0,576.0,690.0,312.0,78.0,261.0,493.0,465.0,390.0,1052.0,388.0,482.0,282.0,474.0,956.0,368.0,180.0,683.0,474.0,1159.0,164.0,463.0,467.0,307.0,853.0,472.0,858.0,666.0,656.0,716.0,218.0,620.0,1074.0,656.0,865.0,376.0,376.0,407.0,403.0,803.0,214.0,722.0,324.0,412.0,360.0,470.0,543.0,505.0,560.0,539.0,512.0,277.0,746.0,1287.0,265.0,335.0,664.0,460.0,432.0,567.0,135.0,305.0,196.0,672.0,138.0,262.0,104.0,404.0,151.0,119.0,133.0,117.0,135.0,103.0,126.0,105.0,133.0,98.0,124.0,100.0,110.0,112.0,105.0,115.0,99.0,129.0,87.0,120.0,0.0,0.0,0.0,0.0,0.0,0.0,0.0,0.0,0.0,0.0,0.0,0.0,0.0,0.0,0.0,0.0,0.0,0.0,0.0,0.0,0.0,0.0,0.0,0.0,0.0,0.0,0.0,0.0,0.0,0.0,0.0,0.0,0.0,0.0,0.0,0.0,0.0,0.0,0.0,0.0,0.0,0.0,0.0,0.0,0.0,0.0,0.0,0.0,0.0,0.0,0.0,0.0,0.0,0.0,0.0,0.0,0.0,0.0,0.0,0.0,0.0
502.0,232.0,523.0,285.0,358.0,502.0,285.0,627.0,206.0,964.0,341.0,523.0,441.0,142.0,672.0,455.0,539.0,258.0,120.0,271.0,149.0,397.0,77.0,556.0,1174.0,246.0,350.0,143.0,149.0,322.0,1066.0,350.0,393.0,375.0,825.0,321.0,190.0,378.0,279.0,197.0,1299.0,234.0,657.0,200.0,194.0,720.0,85.0,388.0,372.0,350.0,830.0,145.0,696.0,187.0,253.0,100.0,463.0,145.0,1135.0,325.0,390.0,193.0,487.0,109.0,137.0,736.0,214.0,262.0,206.0,176.0,132.0,107.0,183.0,167.0,86.0,115.0,99.0,111.0,94.0,115.0,88.0,117.0,79.0,107.0,87.0,113.0,82.0,111.0,82.0,0.0,0.0,0.0,0.0,0.0,0.0,0.0,0.0,0.0,0.0,0.0,0.0,0.0,0.0,0.0,0.0,0.0,0.0,0.0,0.0,0.0,0.0,0.0,0.0,0.0,0.0,0.0,0.0,0.0,0.0,0.0,0.0,0.0,0.0,0.0,0.0,0.0,0.0,0.0,0.0,0.0,0.0,0.0,0.0,0.0,0.0,0.0,0.0,0.0,0.0,0.0,0.0,0.0,0.0,0.0,0.0,0.0,0.0,0.0,0.0,0.0,0.0,0.0,0.0,0.0,0.0,0.0,0.0,0.0,0.0,0.0
275.0,175.0,234.0,17.0,831.0,64.0,260.0,47.0,750.0,232.0,545.0,232.0,469.0,427.0,226.0,106.0,342.0,530.0,179.0,454.0,278.0,517.0,550.0,175.0,383.0,188.0,325.0,277.0,155.0,1659.0,264.0,734.0,92.0,1274.0,154.0,510.0,213.0,296.0,705.0,164.0,1517.0,205.0,588.0,354.0,262.0,479.0,318.0,803.0,283.0,476.0,229.0,375.0,492.0,241.0,633.0,61.0,752.0,235.0,691.0,539.0,428.0,716.0,440.0,743.0,154.0,139.0,172.0,464.0,217.0,278.0,257.0,451.0,179.0,139.0,379.0,110.0,270.0,157.0,147.0,504.0,181.0,141.0,137.0,121.0,109.0,103.0,122.0,127.0,99.0,169.0,101.0,118.0,103.0,151.0,99.0,79.0,117.0,90.0,95.0,92.0,0.0,0.0,0.0,0.0,0.0,0.0,0.0,0.0,0.0,0.0,0.0,0.0,0.0,0.0,0.0,0.0,0.0,0.0,0.0,0.0,0.0,0.0,0.0,0.0,0.0,0.0,0.0,0.0,0.0,0.0,0.0,0.0,0.0,0.0,0.0,0.0,0.0,0.0,0.0,0.0,0.0,0.0,0.0,0.0,0.0,0.0,0.0,0.0,0.0,0.0,0.0,0.0,0.0,0.0,0.0,0.0,0.0,0.0,0.0,0.0
498.0,201.0,378.0,185.0,915.0,598.0,429.0,549.0,307.0,448.0,527.0,179.0,381.0,809.0,198.0,289.0,241.0,328.0,799.0,268.0,114.0,489.0,139.0,579.0,465.0,900.0,374.0,646.0,308.0,635.0,239.0,663.0,170.0,974.0,254.0,357.0,664.0,665.0,549.0,689.0,690.0,593.0,722.0,654.0,374.0,980.0,612.0,523.0,683.0,355.0,596.0,369.0,335.0,704.0,366.0,1399.0,1413.0,535.0,457.0,197.0,294.0,541.0,390.0,148.0,1078.0,798.0,177.0,400.0,483.0,205.0,254.0,273.0,636.0,143.0,537.0,208.0,219.0,160.0,421.0,255.0,208.0,1340.0,278.0,213.0,153.0,271.0,91.0,149.0,86.0,119.0,73.0,187.0,174.0,124.0,96.0,115.0,109.0,104.0,118.0,91.0,123.0,85.0,123.0,86.0,101.0,95.0,0.0,0.0,0.0,0.0,0.0,0.0,0.0,0.0,0.0,0.0,0.0,0.0,0.0,0.0,0.0,0.0,0.0,0.0,0.0,0.0,0.0,0.0,0.0,0.0,0.0,0.0,0.0,0.0,0.0,0.0,0.0,0.0,0.0,0.0,0.0,0.0,0.0,0.0,0.0,0.0,0.0,0.0,0.0,0.0,0.0,0.0,0.0,0.0,0.0,0.0,0.0,0.0,0.0,0.0
357.0,136.0,278.0,363.0,113.0,739.0,359.0,174.0,206.0,370.0,322.0,197.0,411.0,330.0,287.0,326.0,200.0,237.0,526.0,141.0,535.0,361.0,314.0,236.0,536.0,453.0,321.0,556.0,450.0,680.0,400.0,520.0,564.0,156.0,636.0,411.0,303.0,683.0,538.0,380.0,131.0,242.0,608.0,552.0,95.0,1019.0,533.0,871.0,448.0,804.0,352.0,342.0,479.0,1186.0,337.0,436.0,481.0,644.0,481.0,650.0,261.0,294.0,573.0,565.0,643.0,349.0,243.0,428.0,338.0,363.0,562.0,509.0,361.0,436.0,410.0,299.0,452.0,360.0,822.0,891.0,134.0,499.0,159.0,405.0,165.0,596.0,128.0,480.0,262.0,215.0,170.0,301.0,164.0,135.0,161.0,327.0,105.0,92.0,122.0,91.0,125.0,98.0,74.0,78.0,116.0,95.0,92.0,102.0,102.0,104.0,74.0,130.0,81.0,110.0,0.0,0.0,0.0,0.0,0.0,0.0,0.0,0.0,0.0,0.0,0.0,0.0,0.0,0.0,0.0,0.0,0.0,0.0,0.0,0.0,0.0,0.0,0.0,0.0,0.0,0.0,0.0,0.0,0.0,0.0,0.0,0.0,0.0,0.0,0.0,0.0,0.0,0.0,0.0,0.0,0.0,0.0,0.0,0.0,0.0,0.0
498.0,82.0,400.0,262.0,643.0,316.0,246.0,194.0,334.0,402.0,260.0,259.0,361.0,485.0,82.0,385.0,135.0,457.0,652.0,490.0,131.0,233.0,198.0,373.0,278.0,761.0,394.0,324.0,261.0,281.0,259.0,453.0,415.0,137.0,1408.0,506.0,501.0,446.0,301.0,162.0,389.0,445.0,808.0,111.0,441.0,340.0,545.0,247.0,460.0,813.0,583.0,472.0,571.0,276.0,96.0,373.0,1020.0,466.0,802.0,193.0,264.0,609.0,188.0,582.0,274.0,124.0,658.0,705.0,163.0,317.0,300.0,277.0,686.0,266.0,339.0,542.0,282.0,165.0,366.0,306.0,108.0,652.0,382.0,114.0,414.0,310.0,193.0,194.0,144.0,151.0,174.0,100.0,185.0,228.0,173.0,121.0,118.0,82.0,133.0,76.0,159.0,87.0,114.0,98.0,169.0,98.0,100.0,109.0,91.0,100.0,84.0,119.0,106.0,119.0,0.0,0.0,0.0,0.0,0.0,0.0,0.0,0.0,0.0,0.0,0.0,0.0,0.0,0.0,0.0,0.0,0.0,0.0,0.0,0.0,0.0,0.0,0.0,0.0,0.0,0.0,0.0,0.0,0.0,0.0,0.0,0.0,0.0,0.0,0.0,0.0,0.0,0.0,0.0,0.0,0.0,0.0,0.0,0.0,0.0,0.0
260.0,92.0,220.0,240.0,54.0,210.0,588.0,665.0,333.0,319.0,429.0,160.0,512.0,150.0,346.0,189.0,210.0,769.0,78.0,189.0,251.0,242.0,147.0,255.0,449.0,162.0,302.0,303.0,281.0,183.0,328.0,455.0,449.0,364.0,526.0,305.0,424.0,93.0,263.0,393.0,471.0,529.0,247.0,243.0,250.0,404.0,354.0,266.0,359.0,646.0,318.0,435.0,61.0,913.0,241.0,302.0,288.0,950.0,148.0,419.0,168.0,402.0,636.0,324.0,580.0,217.0,276.0,483.0,308.0,330.0,215.0,356.0,392.0,250.0,577.0,342.0,377.0,387.0,199.0,499.0,163.0,361.0,166.0,67.0,648.0,123.0,270.0,170.0,181.0,240.0,144.0,492.0,123.0,170.0,169.0,87.0,268.0,104.0,153.0,509.0,113.0,84.0,132.0,86.0,130.0,92.0,121.0,91.0,111.0,101.0,95.0,112.0,81.0,129.0,87.0,127.0,83.0,125.0,76.0,131.0,0.0,0.0,0.0,0.0,0.0,0.0,0.0,0.0,0.0,0.0,0.0,0.0,0.0,0.0,0.0,0.0,0.0,0.0,0.0,0.0,0.0,0.0,0.0,0.0,0.0,0.0,0.0,0.0,0.0,0.0,0.0,0.0,0.0,0.0,0.0,0.0,0.0,0.0,0.0,0.0
275.0,101.0,100.0,120.0,194.0,205.0,91.0,216.0,128.0,116.0,295.0,172.0,469.0,114.0,586.0,86.0,194.0,148.0,175.0,320.0,343.0,124.0,308.0,215.0,507.0,182.0,352.0,145.0,188.0,502.0,188.0,517.0,190.0,822.0,191.0,299.0,236.0,402.0,196.0,558.0,529.0,605.0,266.0,235.0,473.0,346.0,712.0,582.0,774.0,596.0,242.0,315.0,152.0,460.0,351.0,1428.0,519.0,284.0,331.0,429.0,465.0,193.0,164.0,450.0,310.0,883.0,215.0,411.0,331.0,147.0,512.0,744.0,523.0,283.0,642.0,162.0,127.0,261.0,863.0,150.0,285.0,797.0,432.0,434.0,227.0,351.0,534.0,253.0,117.0,398.0,1027.0,688.0,393.0,269.0,306.0,472.0,95.0,440.0,175.0,79.0,227.0,170.0,312.0,70.0,160.0,117.0,646.0,140.0,142.0,106.0,81.0,158.0,267.0,47.0,162.0,122.0,81.0,120.0,80.0,117.0,84.0,107.0,87.0,98.0,102.0,93.0,117.0,86.0,105.0,87.0,119.0,80.0,120.0,0.0,0.0,0.0,0.0,0.0,0.0,0.0,0.0,0.0,0.0,0.0,0.0,0.0,0.0,0.0,0.0,0.0,0.0,0.0,0.0,0.0,0.0,0.0,0.0,0.0,0.0,0.0
493.0,189.0,354.0,206.0,252.0,194.0,452.0,219.0,273.0,235.0,239.0,382.0,266.0,186.0,246.0,300.0,244.0,306.0,119.0,712.0,127.0,313.0,299.0,206.0,208.0,445.0,183.0,266.0,280.0,380.0,237.0,397.0,804.0,162.0,580.0,243.0,301.0,500.0,505.0,159.0,210.0,334.0,40.0,1513.0,253.0,297.0,228.0,320.0,240.0,145.0,677.0,173.0,979.0,116.0,338.0,291.0,356.0,484.0,309.0,223.0,503.0,271.0,687.0,103.0,271.0,454.0,279.0,278.0,223.0,743.0,205.0,451.0,210.0,518.0,470.0,313.0,252.0,313.0,157.0,336.0,172.0,172.0,286.0,328.0,501.0,332.0,589.0,179.0,140.0,182.0,253.0,80.0,489.0,124.0,166.0,191.0,129.0,295.0,151.0,92.0,141.0,99.0,110.0,89.0,123.0,153.0,96.0,106.0,96.0,108.0,108.0,109.0,87.0,125.0,78.0,124.0,91.0,109.0,0.0,0.0,0.0,0.0,0.0,0.0,0.0,0.0,0.0,0.0,0.0,0.0,0.0,0.0,0.0,0.0,0.0,0.0,0.0,0.0,0.0,0.0,0.0,0.0,0.0,0.0,0.0,0.0,0.0,0.0,0.0,0.0,0.0,0.0,0.0,0.0,0.0,0.0,0.0,0.0,0.0,0.0
312.0,129.0,143.0,420.0,349.0,212.0,276.0,61.0,506.0,162.0,193.0,939.0,118.0,42.0,616.0,240.0,137.0,587.0,234.0,101.0,199.0,118.0,608.0,289.0,303.0,455.0,140.0,347.0,271.0,271.0,154.0,209.0,385.0,264.0,975.0,185.0,514.0,241.0,325.0,352.0,72.0,619.0,727.0,550.0,199.0,306.0,263.0,135.0,855.0,199.0,446.0,594.0,531.0,126.0,271.0,177.0,276.0,682.0,927.0,644.0,286.0,582.0,377.0,189.0,708.0,468.0,639.0,204.0,484.0,462.0,116.0,195.0,121.0,345.0,515.0,396.0,865.0,178.0,155.0,257.0,172.0,691.0,242.0,480.0,348.0,296.0,457.0,323.0,130.0,352.0,240.0,142.0,679.0,193.0,187.0,434.0,249.0,229.0,155.0,202.0,136.0,142.0,231.0,214.0,197.0,145.0,150.0,140.0,127.0,80.0,121.0,95.0,114.0,79.0,148.0,100.0,111.0,88.0,104.0,91.0,117.0,97.0,93.0,115.0,0.0,0.0,0.0,0.0,0.0,0.0,0.0,0.0,0.0,0.0,0.0,0.0,0.0,0.0,0.0,0.0,0.0,0.0,0.0,0.0,0.0,0.0,0.0,0.0,0.0,0.0,0.0,0.0,0.0,0.0,0.0,0.0,0.0,0.0,0.0,0.0
465.0,98.0,135.0,395.0,182.0,253.0,235.0,138.0,263.0,42.0,439.0,85.0,805.0,215.0,224.0,259.0,101.0,256.0,112.0,822.0,174.0,281.0,173.0,174.0,104.0,774.0,278.0,357.0,234.0,342.0,151.0,484.0,174.0,501.0,179.0,268.0,500.0,333.0,275.0,86.0,331.0,96.0,483.0,542.0,224.0,664.0,140.0,564.0,318.0,385.0,384.0,346.0,879.0,175.0,224.0,272.0,166.0,462.0,443.0,266.0,835.0,493.0,150.0,542.0,156.0,287.0,747.0,366.0,264.0,150.0,482.0,549.0,458.0,425.0,363.0,679.0,129.0,333.0,378.0,329.0,677.0,447.0,140.0,786.0,312.0,457.0,97.0,225.0,907.0,540.0,415.0,272.0,424.0,87.0,407.0,184.0,194.0,459.0,98.0,172.0,293.0,87.0,448.0,179.0,293.0,73.0,118.0,113.0,121.0,83.0,115.0,108.0,118.0,126.0,101.0,110.0,82.0,120.0,93.0,138.0,91.0,145.0,89.0,102.0,90.0,0.0,0.0,0.0,0.0,0.0,0.0,0.0,0.0,0.0,0.0,0.0,0.0,0.0,0.0,0.0,0.0,0.0,0.0,0.0,0.0,0.0,0.0,0.0,0.0,0.0,0.0,0.0,0.0,0.0,0.0,0.0,0.0,0.0,0.0,0.0
320.0,38.0,264.0,134.0,158.0,441.0,122.0,422.0,156.0,470.0,123.0,1280.0,102.0,109.0,302.0,68.0,959.0,350.0,208.0,43.0,723.0,155.0,695.0,351.0,478.0,466.0,477.0,175.0,312.0,259.0,316.0,442.0,238.0,488.0,198.0,140.0,429.0,438.0,1037.0,232.0,158.0,333.0,385.0,268.0,298.0,258.0,304.0,168.0,272.0,617.0,626.0,332.0,375.0,217.0,406.0,246.0,524.0,101.0,1382.0,199.0,255.0,70.0,347.0,249.0,313.0,787.0,234.0,326.0,202.0,136.0,681.0,88.0,527.0,261.0,731.0,438.0,369.0,233.0,412.0,447.0,440.0,65.0,165.0,95.0,716.0,64.0,617.0,156.0,228.0,106.0,72.0,651.0,80.0,621.0,101.0,167.0,88.0,129.0,146.0,83.0,186.0,107.0,133.0,94.0,157.0,73.0,133.0,83.0,115.0,73.0,106.0,100.0,99.0,106.0,0.0,0.0,0.0,0.0,0.0,0.0,0.0,0.0,0.0,0.0,0.0,0.0,0.0,0.0,0.0,0.0,0.0,0.0,0.0,0.0,0.0,0.0,0.0,0.0,0.0,0.0,0.0,0.0,0.0,0.0,0.0,0.0,0.0,0.0,0.0,0.0,0.0,0.0,0.0,0.0,0.0,0.0,0.0,0.0,0.0,0.0
324.0,360.0,238.0,174.0,115.0,404.0,260.0,486.0,25.0,545.0,71.0,143.0,281.0,375.0,327.0,594.0,498.0,358.0,106.0,278.0,197.0,80.0,776.0,236.0,309.0,459.0,96.0,842.0,197.0,285.0,551.0,197.0,783.0,380.0,593.0,136.0,387.0,422.0,445.0,289.0,322.0,583.0,531.0,490.0,163.0,358.0,510.0,452.0,721.0,569.0,268.0,181.0,203.0,996.0,367.0,196.0,624.0,227.0,391.0,354.0,456.0,516.0,259.0,467.0,196.0,831.0,247.0,320.0,240.0,532.0,282.0,514.0,197.0,295.0,290.0,253.0,932.0,125.0,289.0,111.0,232.0,106.0,134.0,149.0,158.0,194.0,514.0,166.0,209.0,94.0,185.0,206.0,107.0,84.0,116.0,117.0,144.0,110.0,93.0,133.0,74.0,146.0,71.0,128.0,83.0,139.0,150.0,141.0,82.0,115.0,107.0,92.0,0.0,0.0,0.0,0.0,0.0,0.0,0.0,0.0,0.0,0.0,0.0,0.0,0.0,0.0,0.0,0.0,0.0,0.0,0.0,0.0,0.0,0.0,0.0,0.0,0.0,0.0,0.0,0.0,0.0,0.0,0.0,0.0,0.0,0.0,0.0,0.0,0.0,0.0,0.0,0.0,0.0,0.0,0.0,0.0,0.0,0.0,0.0,0.0
341.0,108.0,162.0,170.0,132.0,65.0,200.0,159.0,180.0,196.0,165.0,100.0,230.0,206.0,185.0,247.0,329.0,145.0,445.0,155.0,398.0,372.0,343.0,306.0,200.0,280.0,327.0,264.0,697.0,359.0,322.0,212.0,303.0,638.0,412.0,158.0,496.0,437.0,305.0,571.0,373.0,624.0,275.0,566.0,301.0,758.0,131.0,419.0,261.0,507.0,191.0,425.0,393.0,431.0,700.0,265.0,799.0,532.0,481.0,66.0,756.0,185.0,816.0,322.0,317.0,318.0,326.0,526.0,520.0,227.0,248.0,376.0,574.0,583.0,609.0,148.0,308.0,222.0,428.0,239.0,634.0,733.0,486.0,524.0,167.0,187.0,646.0,194.0,975.0,390.0,730.0,104.0,393.0,117.0,181.0,449.0,195.0,1038.0,252.0,549.0,109.0,314.0,287.0,395.0,534.0,230.0,298.0,175.0,85.0,300.0,128.0,121.0,69.0,214.0,118.0,120.0,91.0,129.0,91.0,118.0,87.0,108.0,96.0,94.0,109.0,92.0,117.0,86.0,121.0,76.0,135.0,81.0,114.0,84.0,0.0,0.0,0.0,0.0,0.0,0.0,0.0,0.0,0.0,0.0,0.0,0.0,0.0,0.0,0.0,0.0,0.0,0.0,0.0,0.0,0.0,0.0,0.0,0.0,0.0,0.0
322.0,86.0,102.0,108.0,357.0,41.0,421.0,239.0,66.0,450.0,18.0,741.0,99.0,278.0,206.0,206.0,450.0,513.0,182.0,224.0,124.0,212.0,291.0,805.0,123.0,150.0,297.0,483.0,331.0,218.0,329.0,302.0,208.0,699.0,683.0,184.0,252.0,168.0,233.0,310.0,217.0,461.0,532.0,331.0,632.0,105.0,333.0,405.0,223.0,587.0,328.0,498.0,324.0,404.0,297.0,515.0,150.0,320.0,749.0,92.0,573.0,169.0,230.0,266.0,941.0,411.0,389.0,467.0,259.0,361.0,369.0,820.0,389.0,606.0,277.0,367.0,599.0,271.0,395.0,1021.0,440.0,459.0,264.0,336.0,306.0,378.0,294.0,558.0,686.0,227.0,460.0,193.0,137.0,831.0,84.0,927.0,134.0,177.0,141.0,172.0,105.0,138.0,99.0,213.0,124.0,111.0,93.0,108.0,86.0,140.0,86.0,117.0,98.0,129.0,94.0,110.0,104.0,96.0,102.0,83.0,129.0,90.0,129.0,79.0,0.0,0.0,0.0,0.0,0.0,0.0,0.0,0.0,0.0,0.0,0.0,0.0,0.0,0.0,0.0,0.0,0.0,0.0,0.0,0.0,0.0,0.0,0.0,0.0,0.0,0.0,0.0,0.0,0.0,0.0,0.0,0.0,0.0,0.0,0.0,0.0
311.0,106.0,104.0,171.0,47.0,335.0,84.0,221.0,183.0,229.0,73.0,229.0,287.0,153.0,199.0,71.0,487.0,45.0,751.0,191.0,239.0,144.0,287.0,367.0,287.0,189.0,234.0,392.0,279.0,403.0,217.0,458.0,513.0,351.0,309.0,247.0,322.0,583.0,326.0,643.0,168.0,556.0,552.0,534.0,95.0,743.0,154.0,729.0,404.0,594.0,189.0,713.0,593.0,334.0,629.0,328.0,64.0,1082.0,220.0,660.0,168.0,339.0,350.0,105.0,498.0,327.0,758.0,238.0,199.0,461.0,179.0,294.0,197.0,532.0,418.0,498.0,316.0,129.0,299.0,242.0,528.0,108.0,499.0,667.0,279.0,671.0,351.0,242.0,427.0,364.0,302.0,177.0,512.0,444.0,287.0,195.0,901.0,256.0,358.0,128.0,180.0,143.0,158.0,124.0,156.0,114.0,113.0,98.0,123.0,89.0,129.0,72.0,137.0,87.0,103.0,90.0,141.0,102.0,125.0,0.0,0.0,0.0,0.0,0.0,0.0,0.0,0.0,0.0,0.0,0.0,0.0,0.0,0.0,0.0,0.0,0.0,0.0,0.0,0.0,0.0,0.0,0.0,0.0,0.0,0.0,0.0,0.0,0.0,0.0,0.0,0.0,0.0,0.0,0.0,0.0,0.0,0.0,0.0,0.0,0.0
268.0,66.0,128.0,47.0,287.0,124.0,228.0,187.0,141.0,305.0,96.0,458.0,94.0,135.0,67.0,449.0,178.0,311.0,285.0,482.0,184.0,194.0,160.0,305.0,482.0,1178.0,406.0,48.0,371.0,144.0,526.0,246.0,497.0,271.0,312.0,367.0,365.0,386.0,196.0,232.0,301.0,99.0,646.0,514.0,273.0,326.0,628.0,262.0,463.0,255.0,296.0,241.0,168.0,538.0,439.0,272.0,697.0,205.0,193.0,163.0,636.0,322.0,396.0,402.0,397.0,630.0,232.0,632.0,193.0,397.0,285.0,259.0,382.0,476.0,474.0,517.0,411.0,478.0,226.0,392.0,123.0,856.0,439.0,936.0,342.0,294.0,216.0,206.0,203.0,514.0,463.0,810.0,287.0,277.0,332.0,100.0,329.0,688.0,188.0,789.0,165.0,280.0,464.0,202.0,124.0,365.0,206.0,500.0,483.0,224.0,82.0,264.0,101.0,118.0,100.0,126.0,103.0,127.0,111.0,114.0,123.0,89.0,138.0,87.0,124.0,107.0,121.0,83.0,110.0,91.0,122.0,88.0,0.0,0.0,0.0,0.0,0.0,0.0,0.0,0.0,0.0,0.0,0.0,0.0,0.0,0.0,0.0,0.0,0.0,0.0,0.0,0.0,0.0,0.0,0.0,0.0,0.0,0.0,0.0,0.0
333.0,161.0,171.0,235.0,617.0,96.0,272.0,498.0,374.0,218.0,492.0,81.0,444.0,59.0,570.0,270.0,299.0,71.0,502.0,545.0,170.0,425.0,124.0,1129.0,681.0,498.0,157.0,599.0,141.0,658.0,237.0,775.0,578.0,230.0,190.0,550.0,366.0,657.0,160.0,344.0,807.0,186.0,692.0,120.0,783.0,538.0,304.0,399.0,327.0,428.0,274.0,488.0,534.0,532.0,316.0,321.0,180.0,361.0,272.0,812.0,221.0,912.0,88.0,752.0,227.0,317.0,231.0,277.0,1110.0,413.0,864.0,271.0,169.0,490.0,405.0,205.0,514.0,636.0,440.0,444.0,272.0,240.0,297.0,813.0,188.0,446.0,345.0,408.0,136.0,232.0,341.0,228.0,343.0,373.0,154.0,126.0,115.0,362.0,129.0,214.0,223.0,102.0,413.0,194.0,197.0,83.0,171.0,141.0,150.0,85.0,141.0,93.0,103.0,106.0,112.0,96.0,96.0,121.0,94.0,159.0,71.0,162.0,156.0,0.0,0.0,0.0,0.0,0.0,0.0,0.0,0.0,0.0,0.0,0.0,0.0,0.0,0.0,0.0,0.0,0.0,0.0,0.0,0.0,0.0,0.0,0.0,0.0,0.0,0.0,0.0,0.0,0.0,0.0,0.0,0.0,0.0,0.0,0.0,0.0,0.0
274.0,142.0,95.0,134.0,83.0,168.0,248.0,270.0,168.0,200.0,385.0,419.0,173.0,151.0,163.0,285.0,228.0,331.0,287.0,209.0,363.0,215.0,353.0,355.0,294.0,354.0,189.0,757.0,92.0,377.0,269.0,552.0,204.0,306.0,250.0,126.0,660.0,180.0,548.0,198.0,613.0,318.0,515.0,484.0,207.0,567.0,266.0,399.0,238.0,542.0,501.0,405.0,290.0,502.0,268.0,681.0,468.0,374.0,74.0,553.0,216.0,699.0,193.0,350.0,1333.0,341.0,448.0,101.0,458.0,341.0,224.0,350.0,619.0,327.0,492.0,204.0,574.0,87.0,361.0,216.0,724.0,174.0,290.0,208.0,260.0,170.0,390.0,499.0,572.0,408.0,110.0,198.0,158.0,170.0,556.0,441.0,219.0,170.0,268.0,175.0,212.0,305.0,216.0,64.0,282.0,100.0,117.0,85.0,139.0,84.0,143.0,118.0,134.0,127.0,139.0,108.0,103.0,139.0,148.0,86.0,48.0,150.0,80.0,124.0,73.0,0.0,0.0,0.0,0.0,0.0,0.0,0.0,0.0,0.0,0.0,0.0,0.0,0.0,0.0,0.0,0.0,0.0,0.0,0.0,0.0,0.0,0.0,0.0,0.0,0.0,0.0,0.0,0.0,0.0,0.0,0.0,0.0,0.0,0.0,0.0
311.0,264.0,194.0,89.0,364.0,154.0,216.0,225.0,104.0,292.0,461.0,82.0,572.0,116.0,463.0,189.0,91.0,600.0,309.0,224.0,200.0,199.0,443.0,468.0,459.0,255.0,215.0,221.0,430.0,322.0,295.0,414.0,578.0,551.0,219.0,668.0,222.0,324.0,536.0,861.0,169.0,358.0,285.0,307.0,617.0,166.0,264.0,587.0,385.0,510.0,610.0,158.0,597.0,352.0,493.0,772.0,452.0,867.0,227.0,477.0,424.0,295.0,305.0,546.0,809.0,425.0,632.0,322.0,634.0,124.0,669.0,256.0,440.0,138.0,736.0,653.0,864.0,357.0,251.0,215.0,359.0,464.0,730.0,598.0,378.0,562.0,456.0,120.0,816.0,52.0,1106.0,401.0,275.0,370.0,343.0,636.0,295.0,445.0,255.0,384.0,364.0,285.0,340.0,685.0,1026.0,577.0,149.0,198.0,137.0,293.0,682.0,315.0,902.0,190.0,358.0,170.0,514.0,119.0,119.0,454.0,174.0,148.0,102.0,215.0,97.0,198.0,183.0,146.0,183.0,113.0,194.0,68.0,368.0,144.0,115.0,102.0,127.0,81.0,131.0,83.0,130.0,83.0,133.0,86.0,113.0,104.0,107.0,107.0,89.0,121.0,101.0,125.0,104.0,0.0,0.0,0.0,0.0,0.0,0.0,0.0
257.0,192.0,190.0,136.0,205.0,602.0,126.0,199.0,412.0,262.0,259.0,745.0,414.0,462.0,660.0,271.0,102.0,591.0,223.0,462.0,303.0,236.0,489.0,231.0,778.0,105.0,636.0,157.0,219.0,244.0,307.0,475.0,621.0,307.0,288.0,113.0,340.0,517.0,196.0,770.0,321.0,456.0,498.0,331.0,556.0,409.0,353.0,317.0,247.0,374.0,424.0,225.0,453.0,83.0,315.0,145.0,559.0,326.0,411.0,194.0,637.0,207.0,241.0,129.0,502.0,224.0,247.0,460.0,452.0,316.0,95.0,351.0,465.0,66.0,747.0,474.0,141.0,452.0,155.0,311.0,331.0,145.0,448.0,781.0,191.0,354.0,149.0,284.0,465.0,170.0,351.0,1000.0,446.0,435.0,551.0,242.0,297.0,596.0,210.0,832.0,207.0,300.0,241.0,466.0,296.0,122.0,397.0,662.0,380.0,212.0,344.0,292.0,182.0,269.0,289.0,139.0,130.0,215.0,293.0,127.0,102.0,187.0,90.0,164.0,237.0,174.0,123.0,140.0,691.0,79.0,88.0,95.0,123.0,87.0,150.0,96.0,138.0,90.0,147.0,94.0,123.0,87.0,121.0,92.0,106.0,119.0,102.0,123.0,110.0,0.0,0.0,0.0,0.0,0.0,0.0,0.0,0.0,0.0,0.0,0.0
522.0,287.0,43.0,536.0,213.0,175.0,190.0,254.0,283.0,149.0,736.0,282.0,284.0,274.0,79.0,474.0,66.0,495.0,379.0,634.0,261.0,284.0,79.0,340.0,129.0,382.0,173.0,534.0,842.0,327.0,176.0,435.0,231.0,320.0,278.0,572.0,168.0,213.0,149.0,573.0,315.0,561.0,211.0,394.0,426.0,234.0,628.0,22.0,681.0,446.0,350.0,274.0,347.0,357.0,647.0,371.0,367.0,440.0,137.0,218.0,495.0,506.0,496.0,88.0,680.0,218.0,199.0,142.0,227.0,473.0,124.0,396.0,444.0,280.0,221.0,207.0,115.0,461.0,358.0,139.0,486.0,202.0,483.0,309.0,107.0,402.0,141.0,168.0,456.0,225.0,329.0,124.0,240.0,222.0,389.0,265.0,220.0,153.0,142.0,74.0,230.0,113.0,130.0,94.0,137.0,98.0,115.0,95.0,98.0,111.0,92.0,119.0,96.0,106.0,108.0,130.0,100.0,140.0,87.0,152.0,99.0,0.0,0.0,0.0,0.0,0.0,0.0,0.0,0.0,0.0,0.0,0.0,0.0,0.0,0.0,0.0,0.0,0.0,0.0,0.0,0.0,0.0,0.0,0.0,0.0,0.0,0.0,0.0,0.0,0.0,0.0,0.0,0.0,0.0,0.0,0.0,0.0,0.0,0.0,0.0
303.0,58.0,246.0,96.0,228.0,104.0,222.0,185.0,219.0,294.0,452.0,417.0,189.0,352.0,537.0,162.0,223.0,159.0,84.0,503.0,489.0,92.0,309.0,700.0,132.0,196.0,45.0,336.0,139.0,384.0,250.0,495.0,425.0,116.0,121.0,297.0,206.0,468.0,261.0,503.0,358.0,189.0,227.0,187.0,157.0,408.0,734.0,778.0,303.0,113.0,93.0,442.0,530.0,304.0,328.0,612.0,139.0,412.0,92.0,437.0,369.0,81.0,854.0,203.0,230.0,656.0,170.0,196.0,315.0,316.0,706.0,349.0,213.0,130.0,111.0,666.0,103.0,789.0,114.0,738.0,330.0,142.0,413.0,795.0,413.0,129.0,144.0,1311.0,186.0,559.0,177.0,205.0,588.0,255.0,57.0,554.0,405.0,146.0,587.0,88.0,147.0,87.0,238.0,158.0,179.0,108.0,146.0,371.0,86.0,104.0,101.0,151.0,310.0,231.0,150.0,115.0,82.0,130.0,130.0,202.0,123.0,112.0,102.0,138.0,81.0,117.0,97.0,112.0,105.0,106.0,107.0,85.0,122.0,78.0,122.0,84.0,151.0,73.0,110.0,82.0,0.0,0.0,0.0,0.0,0.0,0.0,0.0,0.0,0.0,0.0,0.0,0.0,0.0,0.0,0.0,0.0,0.0,0.0,0.0,0.0
266.0,105.0,71.0,207.0,393.0,97.0,182.0,320.0,234.0,670.0,220.0,240.0,164.0,273.0,303.0,328.0,171.0,515.0,134.0,242.0,438.0,232.0,565.0,136.0,128.0,436.0,345.0,185.0,228.0,387.0,286.0,572.0,255.0,431.0,357.0,223.0,188.0,251.0,194.0,667.0,133.0,413.0,156.0,342.0,624.0,867.0,423.0,214.0,410.0,294.0,192.0,572.0,97.0,139.0,963.0,200.0,621.0,576.0,300.0,201.0,364.0,259.0,825.0,554.0,547.0,408.0,158.0,561.0,791.0,279.0,189.0,550.0,588.0,542.0,205.0,247.0,232.0,409.0,281.0,624.0,186.0,778.0,561.0,385.0,296.0,88.0,577.0,113.0,482.0,323.0,326.0,354.0,144.0,161.0,165.0,204.0,169.0,128.0,128.0,132.0,140.0,133.0,93.0,139.0,66.0,176.0,110.0,137.0,97.0,145.0,84.0,116.0,101.0,92.0,187.0,159.0,0.0,0.0,0.0,0.0,0.0,0.0,0.0,0.0,0.0,0.0,0.0,0.0,0.0,0.0,0.0,0.0,0.0,0.0,0.0,0.0,0.0,0.0,0.0,0.0,0.0,0.0,0.0,0.0,0.0,0.0,0.0,0.0,0.0,0.0,0.0,0.0,0.0,0.0,0.0,0.0,0.0,0.0,0.0,0.0
352.0,266.0,160.0,119.0,258.0,206.0,206.0,271.0,295.0,371.0,245.0,72.0,503.0,119.0,577.0,200.0,249.0,148.0,156.0,772.0,607.0,249.0,319.0,182.0,370.0,77.0,514.0,539.0,288.0,457.0,272.0,375.0,223.0,399.0,357.0,1062.0,124.0,557.0,215.0,641.0,363.0,296.0,517.0,154.0,703.0,551.0,363.0,166.0,541.0,105.0,410.0,609.0,692.0,360.0,399.0,346.0,142.0,752.0,142.0,753.0,247.0,1094.0,65.0,575.0,709.0,257.0,270.0,159.0,301.0,315.0,312.0,642.0,220.0,869.0,255.0,1243.0,290.0,429.0,276.0,213.0,351.0,597.0,268.0,823.0,655.0,407.0,141.0,269.0,294.0,636.0,451.0,863.0,455.0,319.0,293.0,977.0,407.0,344.0,510.0,604.0,518.0,889.0,234.0,231.0,598.0,250.0,745.0,360.0,209.0,119.0,127.0,114.0,108.0,163.0,87.0,112.0,79.0,143.0,78.0,122.0,79.0,135.0,89.0,112.0,88.0,105.0,103.0,97.0,120.0,0.0,0.0,0.0,0.0,0.0,0.0,0.0,0.0,0.0,0.0,0.0,0.0,0.0,0.0,0.0,0.0,0.0,0.0,0.0,0.0,0.0,0.0,0.0,0.0,0.0,0.0,0.0,0.0,0.0,0.0,0.0
261.0,88.0,78.0,149.0,38.0,239.0,39.0,396.0,85.0,94.0,149.0,92.0,105.0,341.0,395.0,135.0,52.0,371.0,94.0,250.0,430.0,65.0,418.0,317.0,163.0,218.0,155.0,530.0,114.0,197.0,158.0,148.0,473.0,302.0,220.0,347.0,202.0,169.0,278.0,315.0,646.0,300.0,306.0,264.0,111.0,515.0,300.0,163.0,207.0,209.0,670.0,90.0,385.0,400.0,255.0,271.0,467.0,265.0,161.0,373.0,441.0,387.0,204.0,280.0,438.0,599.0,200.0,688.0,273.0,156.0,263.0,500.0,279.0,1113.0,553.0,767.0,457.0,221.0,420.0,171.0,244.0,391.0,849.0,862.0,81.0,656.0,130.0,287.0,134.0,724.0,483.0,689.0,391.0,280.0,164.0,222.0,453.0,143.0,341.0,210.0,371.0,200.0,182.0,110.0,196.0,158.0,139.0,146.0,83.0,130.0,95.0,146.0,84.0,139.0,90.0,123.0,97.0,113.0,123.0,125.0,135.0,117.0,0.0,0.0,0.0,0.0,0.0,0.0,0.0,0.0,0.0,0.0,0.0,0.0,0.0,0.0,0.0,0.0,0.0,0.0,0.0,0.0,0.0,0.0,0.0,0.0,0.0,0.0,0.0,0.0,0.0,0.0,0.0,0.0,0.0,0.0,0.0,0.0,0.0,0.0
265.0,176.0,80.0,486.0,259.0,464.0,153.0,260.0,223.0,471.0,364.0,160.0,335.0,352.0,366.0,502.0,103.0,374.0,178.0,261.0,201.0,218.0,201.0,298.0,226.0,516.0,603.0,101.0,237.0,94.0,293.0,187.0,532.0,348.0,347.0,317.0,343.0,162.0,241.0,236.0,469.0,158.0,546.0,251.0,210.0,397.0,78.0,344.0,523.0,335.0,246.0,283.0,302.0,392.0,247.0,187.0,418.0,137.0,904.0,558.0,193.0,296.0,905.0,281.0,239.0,173.0,86.0,757.0,337.0,282.0,340.0,958.0,399.0,423.0,276.0,87.0,501.0,615.0,632.0,378.0,173.0,799.0,505.0,445.0,294.0,180.0,1244.0,640.0,469.0,423.0,238.0,748.0,349.0,453.0,434.0,409.0,411.0,384.0,150.0,744.0,33.0,684.0,286.0,294.0,160.0,304.0,64.0,203.0,136.0,123.0,96.0,146.0,94.0,121.0,112.0,112.0,126.0,162.0,150.0,81.0,199.0,79.0,115.0,69.0,121.0,73.0,123.0,90.0,0.0,0.0,0.0,0.0,0.0,0.0,0.0,0.0,0.0,0.0,0.0,0.0,0.0,0.0,0.0,0.0,0.0,0.0,0.0,0.0,0.0,0.0,0.0,0.0,0.0,0.0,0.0,0.0,0.0,0.0,0.0,0.0
291.0,183.0,308.0,124.0,114.0,710.0,125.0,105.0,671.0,283.0,333.0,436.0,134.0,348.0,348.0,247.0,761.0,139.0,231.0,233.0,368.0,330.0,235.0,584.0,192.0,781.0,169.0,593.0,429.0,430.0,340.0,408.0,209.0,532.0,339.0,607.0,173.0,556.0,334.0,408.0,479.0,296.0,501.0,72.0,229.0,118.0,871.0,197.0,466.0,352.0,475.0,422.0,303.0,339.0,340.0,284.0,811.0,125.0,434.0,418.0,307.0,242.0,450.0,600.0,399.0,614.0,408.0,192.0,787.0,427.0,220.0,760.0,266.0,753.0,641.0,726.0,427.0,583.0,389.0,465.0,316.0,266.0,262.0,329.0,417.0,386.0,964.0,194.0,564.0,236.0,720.0,801.0,129.0,1533.0,206.0,596.0,474.0,653.0,696.0,560.0,496.0,524.0,323.0,722.0,336.0,352.0,164.0,580.0,494.0,616.0,341.0,285.0,348.0,132.0,409.0,211.0,169.0,295.0,249.0,408.0,529.0,154.0,165.0,101.0,124.0,148.0,71.0,160.0,145.0,172.0,110.0,138.0,166.0,297.0,119.0,96.0,241.0,142.0,229.0,436.0,118.0,93.0,126.0,79.0,125.0,82.0,129.0,85.0,126.0,81.0,111.0,100.0,97.0,96.0,91.0,102.0,85.0,118.0,87.0,128.0
