0,1,2,3,4,5,6,7,8,9,10,11,12,13,14,15,16,17,18,19,20,21,22,23,24,25,26,27,28,29,30,31,32,33,34,35,36,37,38,39,40,41,42,43,44,45,46,47,48,49,50,51,52,53,54,55,56,57,58,59,60,61,62,63,64,65,66,67,68,69,70,71,72,73,74,75,76,77,78,79,80,81,82,83,84,85,86,87,88,89,90,91,92,93,94,95,96,97,98,99,100,101,102,103,104,105,106,107,108,109,110,111,112,113,114,115,116,117,118,119,120,121,122,123,124,125,126,127,128,129,130,131,132,133,134,135,136,137,138,139,140,141,142
1616.0,318.0,2074.0,2095.0,2503.0,808.0,2589.0,438.0,1587.0,2328.0,437.0,519.0,2682.0,166.0,1561.0,390.0,2819.0,259.0,1056.0,575.0,1473.0,577.0,1266.0,1359.0,399.0,3118.0,557.0,1726.0,2327.0,1893.0,680.0,2511.0,1705.0,1662.0,912.0,1086.0,3343.0,656.0,1630.0,735.0,2003.0,687.0,2117.0,874.0,2771.0,1958.0,2280.0,1556.0,2139.0,753.0,892.0,922.0,787.0,824.0,2761.0,521.0,2244.0,925.0,516.0,1155.0,1889.0,918.0,1020.0,1225.0,694.0,1381.0,3892.0,564.0,1166.0,370.0,699.0,510.0,1985.0,1221.0,900.0,730.0,633.0,854.0,344.0,703.0,140.0,305.0,61.0,267.0,87.0,263.0,126.0,173.0,150.0,184.0,187.0,115.0,266.0,70.0,232.0,57.0,253.0,59.0,283.0,81.0,0.0,0.0,0.0,0.0,0.0,0.0,0.0,0.0,0.0,0.0,0.0,0.0,0.0,0.0,0.0,0.0,0.0,0.0,0.0,0.0,0.0,0.0,0.0,0.0,0.0,0.0,0.0,0.0,0.0,0.0,0.0,0.0,0.0,0.0,0.0,0.0,0.0,0.0,0.0,0.0,0.0,0.0,0.0
456.0,733.0,1955.0,991.0,1010.0,1238.0,1588.0,1262.0,2858.0,455.0,1340.0,1200.0,1045.0,1723.0,1409.0,883.0,1031.0,980.0,421.0,1377.0,1712.0,2448.0,510.0,1557.0,471.0,2975.0,2063.0,1708.0,1098.0,1268.0,1804.0,1132.0,2838.0,236.0,1919.0,1881.0,2463.0,1185.0,856.0,209.0,2348.0,517.0,1194.0,1092.0,1492.0,717.0,1305.0,1269.0,694.0,2214.0,1042.0,1066.0,970.0,569.0,1044.0,800.0,701.0,1126.0,1130.0,1642.0,1586.0,1067.0,1118.0,4016.0,342.0,1746.0,644.0,1095.0,549.0,1653.0,1117.0,962.0,390.0,1788.0,559.0,1055.0,2114.0,673.0,1434.0,1057.0,2216.0,663.0,1377.0,2818.0,587.0,3094.0,841.0,868.0,205.0,675.0,1708.0,1410.0,898.0,424.0,101.0,625.0,141.0,184.0,275.0,178.0,312.0,81.0,271.0,54.0,271.0,54.0,276.0,74.0,225.0,131.0,181.0,166.0,135.0,161.0,83.0,249.0,0.0,0.0,0.0,0.0,0.0,0.0,0.0,0.0,0.0,0.0,0.0,0.0,0.0,0.0,0.0,0.0,0.0,0.0,0.0,0.0,0.0,0.0,0.0,0.0,0.0,0.0,0.0
607.0,951.0,198.0,2400.0,336.0,1489.0,918.0,2213.0,174.0,2041.0,1491.0,2040.0,1225.0,541.0,601.0,1611.0,2363.0,563.0,2795.0,1094.0,1511.0,596.0,1155.0,1501.0,2303.0,128.0,1714.0,1006.0,932.0,2814.0,676.0,1724.0,484.0,562.0,1217.0,1154.0,1388.0,1940.0,781.0,1636.0,498.0,2728.0,785.0,2659.0,862.0,2572.0,4606.0,1229.0,982.0,1134.0,2312.0,1171.0,4525.0,722.0,885.0,1239.0,463.0,683.0,229.0,2107.0,1549.0,1277.0,734.0,1271.0,1151.0,986.0,1679.0,840.0,3964.0,2696.0,1446.0,620.0,398.0,395.0,1809.0,1102.0,601.0,2218.0,610.0,2647.0,492.0,606.0,977.0,468.0,747.0,1387.0,549.0,1180.0,1126.0,1194.0,1598.0,1058.0,842.0,1448.0,782.0,1013.0,1784.0,1704.0,580.0,1082.0,848.0,911.0,350.0,233.0,771.0,527.0,617.0,84.0,297.0,157.0,607.0,696.0,358.0,166.0,242.0,127.0,198.0,140.0,136.0,167.0,105.0,213.0,70.0,236.0,95.0,236.0,84.0,278.0,46.0,247.0,76.0,216.0,167.0,0.0,0.0,0.0,0.0,0.0,0.0,0.0,0.0,0.0,0.0
484.0,256.0,562.0,395.0,984.0,1001.0,534.0,2320.0,1500.0,1076.0,1879.0,494.0,3206.0,554.0,1967.0,874.0,551.0,270.0,757.0,2285.0,1004.0,1190.0,662.0,2269.0,552.0,2819.0,402.0,1393.0,742.0,2111.0,1694.0,2324.0,1721.0,1423.0,1808.0,335.0,2371.0,775.0,1247.0,1078.0,448.0,1710.0,2010.0,311.0,1019.0,631.0,309.0,933.0,599.0,1445.0,417.0,1309.0,399.0,3310.0,354.0,2013.0,1056.0,355.0,883.0,436.0,892.0,1305.0,1543.0,1815.0,681.0,1130.0,1152.0,135.0,1514.0,1828.0,386.0,1886.0,820.0,1635.0,890.0,1178.0,365.0,1602.0,1318.0,194.0,1058.0,239.0,991.0,820.0,1276.0,491.0,659.0,3210.0,1295.0,2467.0,1630.0,671.0,598.0,206.0,1162.0,322.0,1196.0,530.0,854.0,494.0,590.0,266.0,1611.0,447.0,477.0,315.0,330.0,369.0,95.0,240.0,117.0,256.0,59.0,270.0,77.0,251.0,119.0,205.0,133.0,185.0,161.0,120.0,184.0,111.0,259.0,97.0,244.0,64.0,0.0,0.0,0.0,0.0,0.0,0.0,0.0,0.0,0.0,0.0,0.0,0.0,0.0,0.0,0.0
525.0,522.0,159.0,972.0,743.0,870.0,1308.0,742.0,1600.0,1587.0,1367.0,904.0,946.0,428.0,2397.0,765.0,727.0,797.0,301.0,1125.0,1708.0,685.0,1560.0,1048.0,1387.0,1194.0,1921.0,4265.0,1001.0,1680.0,1976.0,627.0,773.0,807.0,842.0,1189.0,919.0,2483.0,636.0,1587.0,1693.0,1129.0,642.0,1424.0,1215.0,821.0,462.0,1357.0,826.0,971.0,262.0,1895.0,1346.0,1441.0,1786.0,1471.0,1389.0,616.0,749.0,2632.0,630.0,1535.0,807.0,3979.0,1000.0,1151.0,1861.0,901.0,2611.0,1847.0,687.0,1166.0,616.0,3243.0,966.0,1815.0,730.0,578.0,638.0,1747.0,963.0,1759.0,1373.0,941.0,2045.0,952.0,1868.0,682.0,2129.0,389.0,694.0,1250.0,998.0,595.0,317.0,857.0,1790.0,702.0,798.0,1667.0,861.0,447.0,577.0,786.0,506.0,215.0,873.0,992.0,425.0,415.0,285.0,227.0,239.0,136.0,275.0,86.0,150.0,167.0,107.0,233.0,85.0,219.0,47.0,259.0,45.0,238.0,52.0,288.0,86.0,230.0,0.0,0.0,0.0,0.0,0.0,0.0,0.0,0.0,0.0,0.0,0.0,0.0,0.0
569.0,373.0,284.0,834.0,2541.0,782.0,4647.0,92.0,2475.0,808.0,2035.0,675.0,2619.0,756.0,1090.0,1244.0,578.0,1988.0,1088.0,2469.0,319.0,1258.0,827.0,428.0,2527.0,1993.0,1480.0,1112.0,880.0,2545.0,1415.0,2111.0,2235.0,853.0,1328.0,467.0,1727.0,936.0,1699.0,2458.0,488.0,1622.0,338.0,639.0,1051.0,554.0,677.0,2584.0,1791.0,520.0,838.0,656.0,296.0,1131.0,1715.0,1835.0,1275.0,459.0,1406.0,778.0,2477.0,1641.0,1239.0,783.0,1515.0,630.0,2303.0,1098.0,672.0,995.0,531.0,712.0,929.0,3989.0,1039.0,1137.0,707.0,763.0,356.0,829.0,1591.0,618.0,2454.0,3285.0,977.0,1137.0,2837.0,815.0,1001.0,2187.0,1041.0,926.0,655.0,1353.0,536.0,661.0,322.0,1494.0,987.0,2055.0,708.0,1175.0,2051.0,1312.0,941.0,208.0,1692.0,1158.0,698.0,307.0,1288.0,238.0,347.0,96.0,279.0,214.0,317.0,108.0,238.0,113.0,203.0,133.0,131.0,158.0,123.0,201.0,73.0,245.0,44.0,284.0,145.0,0.0,0.0,0.0,0.0,0.0,0.0,0.0,0.0,0.0,0.0,0.0,0.0
939.0,209.0,899.0,423.0,774.0,1619.0,693.0,1021.0,1769.0,480.0,668.0,1070.0,2094.0,768.0,509.0,1829.0,407.0,1128.0,1285.0,314.0,1718.0,637.0,1010.0,1335.0,209.0,1331.0,848.0,1138.0,1092.0,2396.0,1839.0,1096.0,672.0,995.0,583.0,1028.0,662.0,432.0,466.0,1136.0,737.0,949.0,2115.0,842.0,575.0,475.0,2197.0,753.0,650.0,1207.0,1375.0,668.0,2042.0,527.0,695.0,660.0,344.0,758.0,1918.0,1073.0,946.0,2902.0,292.0,1476.0,448.0,2138.0,1111.0,1782.0,938.0,1201.0,483.0,395.0,1895.0,274.0,1547.0,895.0,914.0,1709.0,457.0,1572.0,781.0,988.0,1134.0,3922.0,641.0,1185.0,990.0,228.0,1485.0,485.0,961.0,1170.0,985.0,129.0,1058.0,1674.0,1452.0,1348.0,1094.0,1121.0,1282.0,1116.0,967.0,1683.0,333.0,1245.0,479.0,541.0,868.0,875.0,891.0,2341.0,1248.0,326.0,452.0,282.0,140.0,274.0,1129.0,365.0,1694.0,1140.0,458.0,116.0,245.0,67.0,259.0,75.0,286.0,111.0,216.0,122.0,176.0,139.0,149.0,206.0,84.0,220.0,100.0,254.0,58.0,255.0,63.0
688.0,213.0,325.0,75.0,259.0,216.0,321.0,117.0,2068.0,663.0,1233.0,804.0,367.0,292.0,1304.0,601.0,795.0,1077.0,1529.0,2019.0,1127.0,1562.0,564.0,1057.0,1308.0,337.0,1449.0,971.0,796.0,1109.0,2479.0,428.0,1672.0,2363.0,474.0,1270.0,245.0,1522.0,481.0,505.0,1599.0,1996.0,768.0,1491.0,516.0,257.0,652.0,1247.0,1697.0,1232.0,253.0,1279.0,332.0,1900.0,1475.0,916.0,886.0,1645.0,836.0,880.0,2096.0,1087.0,1742.0,404.0,872.0,580.0,3223.0,1761.0,1630.0,1216.0,762.0,688.0,1970.0,581.0,1265.0,2296.0,451.0,2149.0,359.0,527.0,536.0,1478.0,652.0,1209.0,1444.0,1043.0,1191.0,822.0,598.0,1336.0,486.0,662.0,1074.0,763.0,397.0,441.0,902.0,1502.0,132.0,1715.0,266.0,754.0,591.0,589.0,1047.0,144.0,1996.0,810.0,1150.0,402.0,355.0,1150.0,548.0,367.0,114.0,1046.0,511.0,393.0,110.0,359.0,61.0,287.0,72.0,261.0,129.0,215.0,110.0,188.0,168.0,119.0,197.0,111.0,222.0,71.0,264.0,55.0,255.0,107.0,242.0,74.0,0.0,0.0,0.0
505.0,112.0,208.0,1388.0,867.0,657.0,814.0,2406.0,1618.0,1071.0,1263.0,525.0,1960.0,1311.0,1373.0,706.0,1475.0,960.0,1689.0,1283.0,729.0,719.0,417.0,1190.0,1861.0,623.0,781.0,2609.0,524.0,1827.0,1993.0,1420.0,347.0,1029.0,943.0,1536.0,1047.0,607.0,1106.0,1556.0,1966.0,137.0,815.0,535.0,245.0,1112.0,588.0,1112.0,1982.0,2606.0,273.0,905.0,637.0,300.0,1159.0,915.0,706.0,1034.0,733.0,2249.0,1055.0,837.0,1369.0,901.0,888.0,2010.0,413.0,1782.0,509.0,1544.0,518.0,2190.0,1716.0,625.0,983.0,1469.0,1632.0,1656.0,1563.0,1516.0,1694.0,846.0,1692.0,892.0,2170.0,854.0,1987.0,715.0,936.0,902.0,961.0,1804.0,258.0,1135.0,498.0,1975.0,178.0,1376.0,1361.0,805.0,1236.0,1220.0,1247.0,642.0,595.0,843.0,949.0,601.0,1128.0,2059.0,1141.0,1110.0,657.0,206.0,510.0,109.0,230.0,65.0,434.0,161.0,387.0,120.0,444.0,102.0,220.0,146.0,157.0,180.0,135.0,212.0,80.0,249.0,63.0,259.0,92.0,280.0,56.0,249.0,74.0,219.0,124.0,187.0,148.0
821.0,367.0,566.0,1212.0,153.0,1687.0,1076.0,1696.0,460.0,2125.0,335.0,1494.0,1725.0,2517.0,802.0,440.0,1519.0,1581.0,215.0,1679.0,3231.0,855.0,898.0,1163.0,831.0,709.0,1025.0,808.0,1201.0,1130.0,664.0,2436.0,450.0,2321.0,541.0,916.0,417.0,1516.0,291.0,1539.0,725.0,1011.0,739.0,1309.0,977.0,183.0,379.0,1302.0,404.0,2677.0,448.0,2100.0,840.0,595.0,496.0,278.0,939.0,862.0,1084.0,921.0,277.0,1564.0,628.0,984.0,385.0,1290.0,1822.0,1813.0,1256.0,1514.0,456.0,707.0,975.0,1211.0,662.0,927.0,1063.0,795.0,627.0,527.0,1308.0,720.0,782.0,523.0,1001.0,991.0,1189.0,1057.0,898.0,447.0,1017.0,898.0,705.0,1639.0,806.0,675.0,525.0,966.0,704.0,1214.0,797.0,597.0,240.0,481.0,301.0,494.0,1001.0,1132.0,1523.0,718.0,374.0,316.0,469.0,169.0,273.0,81.0,450.0,128.0,277.0,79.0,270.0,89.0,253.0,139.0,197.0,151.0,177.0,166.0,100.0,216.0,102.0,215.0,86.0,257.0,58.0,309.0,65.0,0.0,0.0,0.0,0.0,0.0,0.0
1211.0,227.0,587.0,373.0,177.0,611.0,477.0,1644.0,885.0,1048.0,850.0,842.0,2201.0,745.0,790.0,145.0,445.0,2398.0,372.0,1344.0,1259.0,415.0,373.0,1470.0,798.0,3589.0,1295.0,1809.0,580.0,666.0,1450.0,795.0,621.0,772.0,387.0,660.0,1657.0,425.0,569.0,1651.0,1041.0,337.0,868.0,1144.0,495.0,892.0,1915.0,1542.0,645.0,1080.0,1090.0,870.0,465.0,796.0,2199.0,589.0,900.0,826.0,285.0,2307.0,938.0,624.0,1114.0,884.0,1489.0,397.0,2185.0,905.0,440.0,730.0,599.0,879.0,538.0,2232.0,1370.0,756.0,1343.0,935.0,861.0,654.0,1524.0,1268.0,1731.0,652.0,1388.0,339.0,1436.0,518.0,2044.0,1423.0,1673.0,448.0,261.0,1342.0,1372.0,849.0,961.0,1363.0,569.0,899.0,1155.0,976.0,2545.0,2261.0,563.0,1204.0,1063.0,380.0,594.0,533.0,1059.0,1040.0,1148.0,484.0,258.0,439.0,244.0,453.0,836.0,258.0,387.0,234.0,506.0,141.0,214.0,282.0,131.0,254.0,140.0,287.0,97.0,251.0,69.0,274.0,73.0,230.0,122.0,190.0,141.0,172.0,173.0,106.0,244.0
366.0,1010.0,166.0,1238.0,1020.0,840.0,1643.0,615.0,1771.0,315.0,2476.0,320.0,3047.0,1366.0,929.0,1187.0,1297.0,846.0,754.0,2263.0,291.0,1044.0,1582.0,623.0,754.0,1091.0,964.0,832.0,996.0,899.0,1093.0,1739.0,527.0,1603.0,3191.0,815.0,2208.0,440.0,1324.0,229.0,440.0,3431.0,1039.0,3070.0,290.0,1433.0,329.0,1700.0,302.0,793.0,691.0,617.0,1974.0,346.0,1468.0,441.0,1387.0,1055.0,586.0,2175.0,313.0,1253.0,593.0,1220.0,1339.0,467.0,1694.0,1098.0,573.0,1817.0,601.0,326.0,1768.0,975.0,462.0,1000.0,1284.0,1219.0,319.0,1433.0,539.0,1148.0,1534.0,291.0,1995.0,705.0,2045.0,318.0,3279.0,749.0,1702.0,111.0,923.0,722.0,2381.0,1940.0,784.0,859.0,663.0,592.0,425.0,814.0,631.0,1216.0,419.0,1437.0,1459.0,495.0,188.0,397.0,83.0,405.0,226.0,1855.0,705.0,458.0,148.0,192.0,156.0,130.0,197.0,97.0,254.0,90.0,258.0,51.0,304.0,50.0,285.0,93.0,231.0,98.0,186.0,138.0,141.0,200.0,0.0,0.0,0.0,0.0,0.0,0.0,0.0
536.0,525.0,1574.0,395.0,1031.0,696.0,399.0,582.0,1709.0,1087.0,1029.0,957.0,288.0,1187.0,1920.0,1345.0,1509.0,395.0,1420.0,1626.0,512.0,559.0,1001.0,1735.0,710.0,642.0,1563.0,325.0,820.0,677.0,936.0,1415.0,1750.0,1710.0,936.0,1501.0,750.0,776.0,465.0,401.0,810.0,442.0,1090.0,610.0,1574.0,746.0,620.0,766.0,967.0,1864.0,173.0,1040.0,358.0,2208.0,1216.0,1088.0,599.0,936.0,1504.0,115.0,1723.0,850.0,1243.0,1587.0,539.0,712.0,1781.0,1965.0,950.0,872.0,1843.0,379.0,1544.0,1542.0,1519.0,1649.0,219.0,528.0,1752.0,1186.0,743.0,859.0,870.0,383.0,969.0,457.0,2291.0,481.0,2228.0,756.0,1015.0,673.0,1266.0,301.0,2639.0,479.0,1087.0,399.0,506.0,341.0,831.0,1890.0,532.0,1213.0,498.0,602.0,1161.0,411.0,747.0,892.0,383.0,271.0,246.0,682.0,360.0,199.0,675.0,117.0,257.0,146.0,345.0,147.0,137.0,208.0,142.0,206.0,107.0,225.0,78.0,274.0,58.0,278.0,110.0,254.0,85.0,238.0,112.0,0.0,0.0,0.0,0.0,0.0,0.0
1542.0,248.0,917.0,794.0,344.0,235.0,675.0,578.0,2186.0,877.0,1397.0,201.0,444.0,2585.0,602.0,897.0,485.0,600.0,2345.0,1266.0,222.0,1637.0,122.0,1276.0,294.0,716.0,771.0,2050.0,279.0,1328.0,2018.0,673.0,1281.0,329.0,618.0,1504.0,428.0,653.0,1942.0,295.0,1913.0,243.0,2671.0,643.0,932.0,762.0,554.0,1676.0,166.0,1465.0,3100.0,691.0,1457.0,673.0,1126.0,2343.0,861.0,963.0,1109.0,753.0,281.0,1657.0,424.0,600.0,806.0,491.0,814.0,716.0,2091.0,1117.0,667.0,1046.0,439.0,780.0,691.0,802.0,1134.0,632.0,917.0,398.0,384.0,1741.0,610.0,1217.0,432.0,314.0,605.0,681.0,652.0,636.0,473.0,522.0,1113.0,273.0,654.0,660.0,386.0,435.0,872.0,618.0,579.0,229.0,636.0,313.0,416.0,82.0,311.0,72.0,251.0,130.0,253.0,128.0,178.0,157.0,136.0,227.0,94.0,251.0,67.0,244.0,92.0,267.0,57.0,248.0,76.0,0.0,0.0,0.0,0.0,0.0,0.0,0.0,0.0,0.0,0.0,0.0,0.0,0.0,0.0,0.0,0.0,0.0,0.0
400.0,171.0,375.0,424.0,1539.0,660.0,695.0,1266.0,388.0,1230.0,1112.0,1488.0,198.0,414.0,297.0,1568.0,539.0,1573.0,735.0,778.0,363.0,402.0,1718.0,843.0,1331.0,750.0,1603.0,612.0,720.0,390.0,705.0,739.0,1533.0,861.0,606.0,1204.0,584.0,1239.0,1137.0,451.0,632.0,608.0,608.0,479.0,710.0,1484.0,386.0,786.0,469.0,1876.0,456.0,1479.0,796.0,729.0,780.0,691.0,943.0,906.0,455.0,1943.0,613.0,533.0,731.0,1505.0,1423.0,1738.0,788.0,579.0,920.0,1000.0,334.0,1248.0,1003.0,1262.0,416.0,1230.0,967.0,946.0,1460.0,1027.0,1064.0,1349.0,857.0,1138.0,1474.0,80.0,1057.0,342.0,522.0,1643.0,760.0,500.0,897.0,169.0,715.0,152.0,617.0,750.0,251.0,1038.0,631.0,653.0,126.0,432.0,198.0,421.0,738.0,202.0,260.0,908.0,436.0,440.0,224.0,145.0,274.0,106.0,263.0,68.0,251.0,85.0,259.0,78.0,256.0,87.0,223.0,144.0,207.0,137.0,138.0,212.0,108.0,216.0,0.0,0.0,0.0,0.0,0.0,0.0,0.0,0.0,0.0,0.0,0.0
427.0,169.0,420.0,151.0,341.0,1124.0,76.0,1626.0,321.0,1023.0,731.0,1228.0,679.0,1212.0,708.0,323.0,1099.0,585.0,1399.0,439.0,1113.0,333.0,552.0,939.0,1701.0,1076.0,1205.0,963.0,874.0,1351.0,1140.0,449.0,1386.0,838.0,1622.0,1430.0,1112.0,719.0,1132.0,889.0,1147.0,196.0,1586.0,207.0,490.0,743.0,1240.0,2033.0,694.0,944.0,1417.0,654.0,842.0,1071.0,1385.0,349.0,2967.0,732.0,716.0,769.0,704.0,1748.0,537.0,475.0,1243.0,1567.0,1407.0,755.0,789.0,1240.0,887.0,995.0,1764.0,467.0,701.0,1036.0,559.0,1288.0,1145.0,696.0,690.0,1242.0,834.0,504.0,514.0,1444.0,1405.0,702.0,1239.0,728.0,2046.0,1010.0,309.0,504.0,636.0,729.0,1046.0,1334.0,611.0,619.0,772.0,566.0,374.0,1110.0,413.0,577.0,124.0,1127.0,190.0,495.0,185.0,223.0,183.0,112.0,205.0,104.0,220.0,77.0,259.0,96.0,325.0,101.0,261.0,79.0,221.0,125.0,176.0,130.0,149.0,195.0,0.0,0.0,0.0,0.0,0.0,0.0,0.0,0.0,0.0,0.0,0.0,0.0,0.0
354.0,355.0,1018.0,260.0,812.0,228.0,347.0,781.0,425.0,826.0,581.0,447.0,637.0,2595.0,408.0,2038.0,1130.0,2657.0,3111.0,1231.0,924.0,956.0,3436.0,281.0,3896.0,666.0,964.0,396.0,1482.0,371.0,1666.0,1475.0,1687.0,1581.0,508.0,732.0,502.0,886.0,1070.0,947.0,1249.0,1616.0,1794.0,723.0,1632.0,1005.0,1406.0,641.0,1033.0,602.0,501.0,441.0,2471.0,783.0,852.0,434.0,1550.0,127.0,1028.0,1199.0,577.0,1030.0,394.0,602.0,697.0,472.0,1967.0,1160.0,444.0,1405.0,431.0,2411.0,950.0,814.0,307.0,671.0,754.0,1348.0,1190.0,1336.0,1466.0,1260.0,485.0,654.0,3294.0,1161.0,1704.0,775.0,913.0,1477.0,1164.0,360.0,805.0,918.0,552.0,773.0,404.0,1448.0,284.0,378.0,185.0,331.0,456.0,564.0,266.0,309.0,276.0,388.0,156.0,274.0,155.0,361.0,148.0,142.0,223.0,95.0,227.0,108.0,241.0,88.0,262.0,56.0,259.0,118.0,246.0,82.0,244.0,107.0,181.0,159.0,127.0,196.0,0.0,0.0,0.0,0.0,0.0,0.0,0.0,0.0,0.0,0.0,0.0
361.0,99.0,303.0,62.0,822.0,122.0,1646.0,221.0,848.0,1047.0,877.0,981.0,308.0,1944.0,726.0,1929.0,1845.0,3359.0,1142.0,2011.0,1358.0,463.0,1761.0,824.0,337.0,1542.0,908.0,2404.0,313.0,1431.0,1563.0,1034.0,981.0,491.0,477.0,1197.0,668.0,410.0,1959.0,1762.0,1245.0,881.0,412.0,461.0,2730.0,332.0,1303.0,605.0,908.0,929.0,413.0,484.0,221.0,2543.0,1153.0,1023.0,764.0,657.0,572.0,485.0,886.0,554.0,1059.0,1512.0,1129.0,619.0,2530.0,1528.0,947.0,1250.0,372.0,1055.0,548.0,1679.0,1358.0,124.0,773.0,525.0,1447.0,1144.0,615.0,779.0,1026.0,1390.0,869.0,595.0,701.0,582.0,1671.0,1364.0,1539.0,1035.0,725.0,290.0,1757.0,1161.0,1043.0,1521.0,544.0,618.0,694.0,1649.0,761.0,474.0,769.0,495.0,366.0,357.0,521.0,568.0,1301.0,235.0,503.0,420.0,99.0,278.0,109.0,247.0,111.0,264.0,99.0,215.0,166.0,164.0,173.0,122.0,227.0,119.0,231.0,75.0,238.0,87.0,248.0,62.0,0.0,0.0,0.0,0.0,0.0,0.0,0.0,0.0,0.0
509.0,170.0,363.0,128.0,1450.0,182.0,1052.0,691.0,932.0,866.0,745.0,530.0,762.0,842.0,334.0,1327.0,292.0,1443.0,241.0,1325.0,1442.0,874.0,603.0,377.0,2008.0,876.0,860.0,1928.0,1509.0,1430.0,373.0,1181.0,2045.0,522.0,808.0,846.0,643.0,490.0,1037.0,238.0,1655.0,785.0,1874.0,635.0,1362.0,578.0,422.0,606.0,321.0,1575.0,485.0,1977.0,938.0,1963.0,634.0,685.0,688.0,1643.0,908.0,1252.0,662.0,1271.0,1597.0,489.0,446.0,1451.0,2503.0,357.0,1915.0,666.0,1347.0,636.0,405.0,280.0,2034.0,689.0,774.0,553.0,1174.0,840.0,457.0,550.0,745.0,217.0,629.0,1404.0,811.0,1532.0,393.0,533.0,272.0,1691.0,354.0,447.0,787.0,371.0,491.0,216.0,290.0,102.0,408.0,266.0,252.0,159.0,379.0,144.0,226.0,95.0,220.0,143.0,168.0,194.0,97.0,206.0,96.0,260.0,52.0,287.0,54.0,267.0,62.0,240.0,75.0,212.0,127.0,0.0,0.0,0.0,0.0,0.0,0.0,0.0,0.0,0.0,0.0,0.0,0.0,0.0,0.0,0.0,0.0,0.0,0.0
713.0,115.0,541.0,142.0,617.0,697.0,361.0,2073.0,400.0,2955.0,1346.0,1240.0,1830.0,1144.0,1003.0,574.0,977.0,888.0,747.0,2030.0,864.0,1272.0,627.0,928.0,947.0,585.0,1695.0,2108.0,1492.0,584.0,1063.0,1739.0,370.0,923.0,918.0,482.0,1788.0,2052.0,759.0,1125.0,1064.0,404.0,544.0,683.0,1221.0,1463.0,2786.0,529.0,655.0,1193.0,786.0,1009.0,517.0,1331.0,666.0,690.0,600.0,1506.0,484.0,2063.0,820.0,996.0,795.0,963.0,616.0,724.0,1257.0,802.0,1998.0,223.0,1925.0,456.0,1265.0,609.0,300.0,904.0,487.0,1668.0,1457.0,680.0,1032.0,999.0,1322.0,841.0,1197.0,1010.0,1801.0,535.0,907.0,398.0,2773.0,674.0,1483.0,673.0,515.0,655.0,652.0,1859.0,1217.0,502.0,543.0,726.0,463.0,270.0,245.0,172.0,223.0,145.0,194.0,173.0,199.0,325.0,79.0,282.0,77.0,272.0,84.0,338.0,99.0,289.0,72.0,228.0,133.0,0.0,0.0,0.0,0.0,0.0,0.0,0.0,0.0,0.0,0.0,0.0,0.0,0.0,0.0,0.0,0.0,0.0,0.0,0.0,0.0
890.0,100.0,873.0,915.0,934.0,1156.0,874.0,1647.0,2845.0,1316.0,1118.0,499.0,1359.0,795.0,1476.0,493.0,1302.0,827.0,904.0,2092.0,1077.0,532.0,1481.0,1808.0,662.0,1467.0,381.0,3180.0,869.0,1145.0,821.0,943.0,1186.0,1740.0,1183.0,2945.0,303.0,673.0,2235.0,157.0,980.0,189.0,967.0,1398.0,1428.0,939.0,1350.0,580.0,1144.0,447.0,1355.0,784.0,2282.0,940.0,1651.0,1245.0,1521.0,2060.0,927.0,2619.0,1564.0,707.0,996.0,1884.0,996.0,1164.0,136.0,670.0,431.0,175.0,795.0,2591.0,1440.0,517.0,890.0,674.0,450.0,424.0,1024.0,111.0,416.0,351.0,385.0,179.0,138.0,240.0,90.0,238.0,84.0,266.0,61.0,288.0,70.0,261.0,92.0,208.0,115.0,181.0,157.0,118.0,202.0,96.0,253.0,0.0,0.0,0.0,0.0,0.0,0.0,0.0,0.0,0.0,0.0,0.0,0.0,0.0,0.0,0.0,0.0,0.0,0.0,0.0,0.0,0.0,0.0,0.0,0.0,0.0,0.0,0.0,0.0,0.0,0.0,0.0,0.0,0.0,0.0,0.0,0.0,0.0,0.0,0.0,0.0
392.0,320.0,300.0,629.0,569.0,889.0,551.0,845.0,913.0,823.0,258.0,892.0,291.0,764.0,756.0,627.0,1316.0,258.0,1026.0,1456.0,602.0,1316.0,1936.0,988.0,625.0,1359.0,924.0,1799.0,1906.0,448.0,1558.0,839.0,785.0,703.0,1286.0,1441.0,2635.0,545.0,874.0,1258.0,515.0,712.0,1426.0,535.0,1170.0,562.0,504.0,1102.0,376.0,1065.0,1150.0,1150.0,1115.0,1549.0,977.0,567.0,1409.0,938.0,803.0,1695.0,1471.0,1063.0,1435.0,515.0,1769.0,1845.0,595.0,1246.0,523.0,1401.0,2315.0,993.0,633.0,418.0,591.0,1078.0,773.0,394.0,746.0,397.0,1519.0,240.0,663.0,675.0,354.0,893.0,279.0,908.0,921.0,223.0,342.0,275.0,386.0,98.0,315.0,111.0,240.0,151.0,195.0,145.0,177.0,178.0,128.0,209.0,78.0,249.0,93.0,259.0,65.0,258.0,73.0,264.0,83.0,0.0,0.0,0.0,0.0,0.0,0.0,0.0,0.0,0.0,0.0,0.0,0.0,0.0,0.0,0.0,0.0,0.0,0.0,0.0,0.0,0.0,0.0,0.0,0.0,0.0,0.0,0.0,0.0,0.0,0.0
381.0,408.0,1411.0,195.0,1465.0,211.0,423.0,410.0,1209.0,1206.0,1406.0,923.0,1268.0,1057.0,1994.0,493.0,962.0,292.0,1793.0,376.0,694.0,1336.0,548.0,1382.0,618.0,701.0,1606.0,308.0,878.0,1281.0,489.0,1271.0,615.0,814.0,3003.0,596.0,1075.0,589.0,724.0,168.0,465.0,1883.0,866.0,1185.0,918.0,942.0,828.0,296.0,494.0,742.0,715.0,1558.0,706.0,635.0,661.0,1360.0,684.0,287.0,885.0,654.0,1209.0,2539.0,403.0,1356.0,1492.0,519.0,1047.0,737.0,1022.0,1067.0,1261.0,598.0,442.0,1866.0,1086.0,1003.0,257.0,787.0,1069.0,259.0,859.0,328.0,616.0,559.0,475.0,370.0,471.0,201.0,212.0,579.0,335.0,525.0,281.0,332.0,108.0,254.0,102.0,203.0,170.0,144.0,168.0,132.0,200.0,102.0,202.0,62.0,258.0,91.0,252.0,62.0,262.0,71.0,0.0,0.0,0.0,0.0,0.0,0.0,0.0,0.0,0.0,0.0,0.0,0.0,0.0,0.0,0.0,0.0,0.0,0.0,0.0,0.0,0.0,0.0,0.0,0.0,0.0,0.0,0.0,0.0,0.0,0.0,0.0
440.0,93.0,641.0,202.0,1203.0,90.0,532.0,1145.0,324.0,1252.0,1346.0,1091.0,359.0,869.0,977.0,993.0,1114.0,1576.0,910.0,749.0,534.0,1335.0,1457.0,672.0,669.0,1230.0,687.0,1453.0,1213.0,239.0,453.0,2041.0,1098.0,964.0,718.0,748.0,669.0,947.0,1227.0,314.0,329.0,1108.0,1208.0,1515.0,1323.0,500.0,1339.0,1017.0,823.0,1486.0,213.0,442.0,479.0,1400.0,1083.0,2068.0,947.0,1207.0,864.0,253.0,1675.0,1475.0,2377.0,923.0,1522.0,2344.0,396.0,1105.0,1380.0,685.0,1539.0,744.0,1089.0,570.0,2521.0,194.0,1572.0,884.0,901.0,1915.0,831.0,484.0,771.0,984.0,824.0,866.0,1051.0,556.0,557.0,227.0,570.0,806.0,384.0,89.0,243.0,132.0,229.0,166.0,203.0,154.0,168.0,175.0,110.0,211.0,79.0,244.0,94.0,260.0,54.0,257.0,82.0,243.0,83.0,0.0,0.0,0.0,0.0,0.0,0.0,0.0,0.0,0.0,0.0,0.0,0.0,0.0,0.0,0.0,0.0,0.0,0.0,0.0,0.0,0.0,0.0,0.0,0.0,0.0,0.0,0.0,0.0,0.0,0.0
831.0,387.0,1822.0,657.0,906.0,804.0,779.0,1733.0,626.0,1311.0,430.0,1566.0,712.0,1140.0,1844.0,987.0,868.0,1563.0,1347.0,1085.0,3343.0,1156.0,1806.0,1281.0,656.0,667.0,1597.0,1284.0,2207.0,332.0,1265.0,613.0,1607.0,797.0,1429.0,468.0,2407.0,867.0,1174.0,709.0,291.0,817.0,1236.0,1474.0,1385.0,1465.0,1643.0,616.0,1164.0,545.0,790.0,1994.0,922.0,1412.0,1130.0,1029.0,2075.0,435.0,1609.0,654.0,549.0,409.0,2413.0,233.0,5185.0,1018.0,1315.0,300.0,772.0,559.0,1382.0,388.0,1303.0,596.0,2339.0,1530.0,362.0,587.0,484.0,333.0,748.0,467.0,285.0,642.0,128.0,308.0,577.0,739.0,772.0,340.0,416.0,192.0,215.0,101.0,243.0,76.0,233.0,104.0,262.0,66.0,257.0,76.0,242.0,124.0,186.0,127.0,179.0,179.0,132.0,217.0,92.0,0.0,0.0,0.0,0.0,0.0,0.0,0.0,0.0,0.0,0.0,0.0,0.0,0.0,0.0,0.0,0.0,0.0,0.0,0.0,0.0,0.0,0.0,0.0,0.0,0.0,0.0,0.0,0.0,0.0,0.0,0.0,0.0
884.0,176.0,651.0,1504.0,203.0,1582.0,484.0,1526.0,1655.0,1242.0,1299.0,295.0,1198.0,759.0,953.0,3863.0,628.0,1308.0,228.0,1748.0,401.0,4641.0,417.0,836.0,474.0,953.0,431.0,412.0,1180.0,1427.0,149.0,1757.0,1215.0,535.0,1796.0,320.0,1428.0,457.0,1222.0,1040.0,1459.0,509.0,738.0,1667.0,2059.0,334.0,1534.0,1288.0,712.0,745.0,1104.0,985.0,1291.0,665.0,650.0,380.0,717.0,285.0,851.0,1722.0,742.0,1406.0,574.0,2011.0,389.0,1158.0,1972.0,363.0,1602.0,264.0,1846.0,269.0,838.0,610.0,940.0,756.0,1503.0,1191.0,1623.0,640.0,1179.0,281.0,631.0,277.0,370.0,1620.0,362.0,690.0,1059.0,675.0,677.0,308.0,406.0,105.0,281.0,77.0,296.0,89.0,233.0,125.0,211.0,110.0,186.0,146.0,131.0,239.0,107.0,216.0,108.0,238.0,89.0,249.0,67.0,0.0,0.0,0.0,0.0,0.0,0.0,0.0,0.0,0.0,0.0,0.0,0.0,0.0,0.0,0.0,0.0,0.0,0.0,0.0,0.0,0.0,0.0,0.0,0.0,0.0,0.0,0.0,0.0,0.0,0.0
473.0,117.0,412.0,127.0,2038.0,442.0,1432.0,362.0,544.0,616.0,347.0,1005.0,1090.0,1250.0,1012.0,1355.0,660.0,1579.0,254.0,1611.0,4143.0,475.0,2606.0,2701.0,1324.0,1845.0,1417.0,1444.0,2697.0,421.0,1515.0,612.0,831.0,770.0,562.0,1490.0,1616.0,1306.0,1190.0,639.0,1478.0,334.0,1724.0,552.0,2818.0,869.0,873.0,1792.0,1165.0,1439.0,629.0,1126.0,1946.0,944.0,588.0,2403.0,156.0,2017.0,405.0,3350.0,355.0,2196.0,931.0,796.0,296.0,1560.0,658.0,2201.0,1951.0,616.0,750.0,3611.0,673.0,1266.0,581.0,324.0,612.0,3375.0,1348.0,1580.0,498.0,1631.0,335.0,3257.0,1282.0,1103.0,966.0,2302.0,277.0,671.0,784.0,629.0,621.0,1196.0,740.0,500.0,1011.0,287.0,190.0,271.0,271.0,380.0,297.0,123.0,284.0,69.0,280.0,85.0,235.0,133.0,146.0,186.0,111.0,212.0,105.0,247.0,81.0,285.0,68.0,279.0,74.0,243.0,0.0,0.0,0.0,0.0,0.0,0.0,0.0,0.0,0.0,0.0,0.0,0.0,0.0,0.0,0.0,0.0,0.0,0.0,0.0,0.0,0.0
453.0,1135.0,108.0,761.0,508.0,623.0,1717.0,574.0,1777.0,1151.0,639.0,626.0,987.0,1073.0,1684.0,1743.0,2551.0,836.0,2789.0,999.0,1919.0,695.0,1381.0,1007.0,820.0,1286.0,2301.0,1690.0,939.0,1766.0,689.0,965.0,470.0,3004.0,468.0,1571.0,1403.0,2620.0,1872.0,683.0,1533.0,1017.0,654.0,1259.0,491.0,2110.0,577.0,1959.0,257.0,905.0,1221.0,1132.0,645.0,638.0,2314.0,472.0,1218.0,1007.0,1721.0,971.0,740.0,608.0,726.0,128.0,1755.0,618.0,799.0,1192.0,537.0,368.0,1115.0,404.0,1373.0,783.0,988.0,972.0,899.0,1632.0,584.0,1716.0,617.0,785.0,2051.0,344.0,1230.0,311.0,535.0,512.0,444.0,1030.0,446.0,609.0,548.0,494.0,580.0,124.0,182.0,226.0,128.0,203.0,139.0,238.0,74.0,271.0,97.0,307.0,111.0,252.0,85.0,286.0,112.0,187.0,135.0,161.0,183.0,0.0,0.0,0.0,0.0,0.0,0.0,0.0,0.0,0.0,0.0,0.0,0.0,0.0,0.0,0.0,0.0,0.0,0.0,0.0,0.0,0.0,0.0,0.0,0.0,0.0,0.0,0.0,0.0
571.0,505.0,753.0,1449.0,457.0,1396.0,106.0,1581.0,1031.0,591.0,1037.0,743.0,1649.0,575.0,1576.0,1908.0,896.0,981.0,390.0,849.0,1672.0,531.0,1518.0,1069.0,394.0,892.0,993.0,768.0,301.0,1686.0,1066.0,644.0,242.0,1241.0,288.0,963.0,425.0,1744.0,520.0,1086.0,796.0,1347.0,1112.0,759.0,761.0,684.0,391.0,805.0,607.0,985.0,1984.0,164.0,894.0,387.0,823.0,540.0,462.0,736.0,763.0,1114.0,1085.0,726.0,873.0,871.0,901.0,1415.0,1999.0,720.0,224.0,1408.0,482.0,957.0,725.0,317.0,589.0,1098.0,603.0,1115.0,461.0,1332.0,596.0,618.0,397.0,260.0,362.0,282.0,1198.0,425.0,416.0,220.0,1043.0,162.0,866.0,120.0,368.0,251.0,375.0,444.0,215.0,303.0,128.0,209.0,112.0,241.0,69.0,253.0,62.0,271.0,98.0,282.0,74.0,246.0,94.0,177.0,155.0,136.0,219.0,88.0,0.0,0.0,0.0,0.0,0.0,0.0,0.0,0.0,0.0,0.0,0.0,0.0,0.0,0.0,0.0,0.0,0.0,0.0,0.0,0.0,0.0,0.0,0.0,0.0,0.0
578.0,65.0,370.0,753.0,79.0,726.0,339.0,907.0,793.0,770.0,1131.0,824.0,970.0,362.0,911.0,2234.0,567.0,838.0,180.0,2215.0,616.0,3196.0,493.0,729.0,1101.0,565.0,3179.0,165.0,1885.0,1336.0,1813.0,428.0,1139.0,1590.0,1617.0,1682.0,1445.0,477.0,313.0,1979.0,272.0,3666.0,1927.0,173.0,1347.0,386.0,572.0,805.0,735.0,1650.0,332.0,1941.0,1907.0,590.0,1330.0,1120.0,557.0,1441.0,454.0,602.0,1557.0,245.0,1107.0,967.0,600.0,1020.0,985.0,1183.0,1470.0,292.0,408.0,557.0,2044.0,580.0,683.0,889.0,168.0,1150.0,256.0,630.0,222.0,1486.0,481.0,450.0,722.0,385.0,489.0,573.0,213.0,312.0,195.0,820.0,136.0,766.0,398.0,144.0,267.0,66.0,247.0,130.0,222.0,77.0,210.0,176.0,233.0,209.0,268.0,236.0,136.0,204.0,76.0,257.0,62.0,241.0,87.0,0.0,0.0,0.0,0.0,0.0,0.0,0.0,0.0,0.0,0.0,0.0,0.0,0.0,0.0,0.0,0.0,0.0,0.0,0.0,0.0,0.0,0.0,0.0,0.0,0.0,0.0,0.0,0.0
785.0,137.0,549.0,890.0,288.0,1432.0,154.0,1054.0,1339.0,578.0,1605.0,631.0,939.0,1097.0,1739.0,1771.0,854.0,1079.0,1048.0,2109.0,581.0,1956.0,884.0,1832.0,2351.0,877.0,1713.0,245.0,2614.0,484.0,2345.0,583.0,1376.0,1450.0,1213.0,825.0,173.0,1147.0,442.0,1431.0,1741.0,1119.0,1422.0,2127.0,1184.0,1779.0,1053.0,1482.0,526.0,819.0,1713.0,1547.0,377.0,1138.0,414.0,804.0,939.0,696.0,901.0,2741.0,907.0,1049.0,2482.0,433.0,1160.0,135.0,1177.0,941.0,887.0,798.0,772.0,828.0,402.0,533.0,907.0,407.0,263.0,729.0,1118.0,919.0,649.0,450.0,673.0,208.0,479.0,402.0,637.0,270.0,361.0,265.0,337.0,99.0,182.0,132.0,154.0,191.0,130.0,229.0,82.0,261.0,63.0,241.0,58.0,259.0,74.0,350.0,133.0,229.0,142.0,170.0,138.0,158.0,180.0,96.0,232.0,77.0,245.0,94.0,258.0,62.0,241.0,67.0,239.0,121.0,206.0,120.0,0.0,0.0,0.0,0.0,0.0,0.0,0.0,0.0,0.0,0.0,0.0,0.0,0.0,0.0,0.0,0.0,0.0
587.0,614.0,1410.0,340.0,1049.0,560.0,874.0,755.0,1501.0,582.0,281.0,3359.0,383.0,1348.0,624.0,1073.0,1133.0,656.0,1157.0,219.0,1165.0,752.0,1816.0,287.0,2032.0,339.0,587.0,2113.0,1374.0,1911.0,1615.0,536.0,1410.0,175.0,2820.0,870.0,952.0,2372.0,1209.0,1500.0,228.0,721.0,1453.0,119.0,1203.0,1654.0,394.0,4226.0,467.0,1478.0,759.0,868.0,677.0,2206.0,213.0,1660.0,589.0,357.0,1067.0,270.0,1500.0,1029.0,828.0,1610.0,268.0,530.0,674.0,671.0,740.0,735.0,1194.0,548.0,411.0,1459.0,489.0,1153.0,566.0,527.0,742.0,580.0,176.0,1453.0,282.0,518.0,853.0,806.0,367.0,179.0,241.0,292.0,311.0,112.0,246.0,59.0,247.0,66.0,244.0,125.0,247.0,88.0,203.0,115.0,146.0,221.0,135.0,212.0,109.0,0.0,0.0,0.0,0.0,0.0,0.0,0.0,0.0,0.0,0.0,0.0,0.0,0.0,0.0,0.0,0.0,0.0,0.0,0.0,0.0,0.0,0.0,0.0,0.0,0.0,0.0,0.0,0.0,0.0,0.0,0.0,0.0,0.0,0.0,0.0,0.0
