0,1,2,3,4,5,6,7,8,9,10,11,12,13,14,15,16,17,18,19,20,21,22,23,24,25,26,27,28,29,30,31,32,33,34,35,36,37,38,39,40,41,42,43,44,45,46,47,48,49,50,51,52,53,54,55,56,57,58,59,60,61,62,63,64,65,66,67,68,69,70,71,72,73,74,75,76,77,78,79,80,81,82,83,84,85,86,87,88,89,90,91,92,93,94,95,96,97,98,99,100,101,102,103,104,105,106,107,108,109,110,111,112,113,114,115,116,117,118,119,120,121,122,123,124,125,126,127,128,129,130,131,132,133,134,135,136,137,138,139,140,141,142,143,144,145,146,147,148,149,150,151,152,153,154
1091.0,167.0,239.0,229.0,841.0,222.0,412.0,438.0,252.0,749.0,282.0,743.0,174.0,896.0,806.0,330.0,264.0,1336.0,881.0,482.0,638.0,445.0,936.0,368.0,601.0,312.0,928.0,377.0,430.0,557.0,867.0,590.0,269.0,339.0,777.0,497.0,872.0,200.0,991.0,469.0,668.0,560.0,1270.0,537.0,322.0,880.0,1172.0,703.0,908.0,307.0,886.0,484.0,371.0,1259.0,378.0,707.0,635.0,929.0,405.0,913.0,538.0,647.0,391.0,886.0,1253.0,540.0,1035.0,914.0,148.0,578.0,733.0,363.0,658.0,273.0,363.0,1125.0,1100.0,332.0,596.0,383.0,352.0,325.0,1124.0,333.0,228.0,170.0,423.0,349.0,184.0,183.0,135.0,93.0,133.0,101.0,127.0,105.0,102.0,111.0,97.0,113.0,102.0,126.0,95.0,126.0,91.0,116.0,95.0,138.0,0.0,0.0,0.0,0.0,0.0,0.0,0.0,0.0,0.0,0.0,0.0,0.0,0.0,0.0,0.0,0.0,0.0,0.0,0.0,0.0,0.0,0.0,0.0,0.0,0.0,0.0,0.0,0.0,0.0,0.0,0.0,0.0,0.0,0.0,0.0,0.0,0.0,0.0,0.0,0.0,0.0,0.0,0.0,0.0,0.0,0.0,0.0
436.0,157.0,409.0,265.0,94.0,345.0,637.0,309.0,300.0,168.0,1128.0,149.0,840.0,628.0,140.0,712.0,576.0,135.0,485.0,828.0,477.0,298.0,545.0,607.0,647.0,455.0,723.0,496.0,677.0,464.0,315.0,318.0,725.0,703.0,433.0,759.0,615.0,628.0,513.0,492.0,323.0,741.0,1235.0,246.0,658.0,695.0,782.0,733.0,614.0,682.0,516.0,578.0,1130.0,1679.0,650.0,934.0,493.0,868.0,687.0,1277.0,160.0,756.0,816.0,575.0,510.0,860.0,181.0,463.0,691.0,958.0,688.0,246.0,1483.0,272.0,732.0,475.0,213.0,740.0,281.0,207.0,302.0,1182.0,359.0,374.0,360.0,820.0,319.0,360.0,606.0,693.0,145.0,225.0,128.0,168.0,293.0,127.0,137.0,101.0,144.0,77.0,113.0,91.0,112.0,84.0,104.0,79.0,102.0,88.0,99.0,89.0,108.0,97.0,101.0,108.0,91.0,0.0,0.0,0.0,0.0,0.0,0.0,0.0,0.0,0.0,0.0,0.0,0.0,0.0,0.0,0.0,0.0,0.0,0.0,0.0,0.0,0.0,0.0,0.0,0.0,0.0,0.0,0.0,0.0,0.0,0.0,0.0,0.0,0.0,0.0,0.0,0.0,0.0,0.0,0.0,0.0
454.0,62.0,352.0,126.0,369.0,152.0,249.0,323.0,285.0,152.0,523.0,365.0,663.0,282.0,502.0,589.0,475.0,513.0,281.0,532.0,323.0,494.0,546.0,487.0,273.0,283.0,1324.0,234.0,555.0,227.0,614.0,957.0,529.0,463.0,910.0,800.0,647.0,422.0,573.0,722.0,375.0,753.0,635.0,325.0,516.0,1085.0,338.0,387.0,223.0,1059.0,275.0,312.0,1042.0,1232.0,247.0,544.0,734.0,1500.0,570.0,1004.0,1454.0,510.0,552.0,855.0,864.0,841.0,525.0,524.0,379.0,1039.0,210.0,829.0,828.0,613.0,462.0,369.0,592.0,655.0,441.0,341.0,606.0,572.0,603.0,932.0,451.0,356.0,284.0,1042.0,259.0,224.0,240.0,166.0,112.0,105.0,118.0,112.0,108.0,100.0,119.0,86.0,113.0,91.0,131.0,89.0,109.0,122.0,106.0,90.0,108.0,102.0,112.0,0.0,0.0,0.0,0.0,0.0,0.0,0.0,0.0,0.0,0.0,0.0,0.0,0.0,0.0,0.0,0.0,0.0,0.0,0.0,0.0,0.0,0.0,0.0,0.0,0.0,0.0,0.0,0.0,0.0,0.0,0.0,0.0,0.0,0.0,0.0,0.0,0.0,0.0,0.0,0.0,0.0,0.0,0.0,0.0
300.0,236.0,159.0,492.0,165.0,561.0,757.0,608.0,799.0,866.0,813.0,607.0,379.0,831.0,271.0,744.0,370.0,560.0,478.0,635.0,292.0,314.0,408.0,486.0,652.0,459.0,429.0,434.0,212.0,553.0,141.0,1058.0,88.0,1901.0,277.0,894.0,555.0,627.0,314.0,241.0,1180.0,647.0,298.0,751.0,1051.0,524.0,613.0,840.0,502.0,502.0,622.0,1004.0,402.0,162.0,822.0,299.0,958.0,313.0,502.0,804.0,565.0,433.0,316.0,404.0,821.0,479.0,760.0,650.0,400.0,774.0,952.0,961.0,427.0,378.0,326.0,395.0,451.0,483.0,1135.0,571.0,725.0,133.0,881.0,252.0,635.0,587.0,347.0,853.0,213.0,408.0,588.0,294.0,238.0,438.0,193.0,257.0,204.0,263.0,132.0,98.0,153.0,141.0,105.0,64.0,135.0,73.0,137.0,67.0,116.0,102.0,109.0,137.0,80.0,93.0,165.0,142.0,90.0,91.0,0.0,0.0,0.0,0.0,0.0,0.0,0.0,0.0,0.0,0.0,0.0,0.0,0.0,0.0,0.0,0.0,0.0,0.0,0.0,0.0,0.0,0.0,0.0,0.0,0.0,0.0,0.0,0.0,0.0,0.0,0.0,0.0,0.0,0.0,0.0,0.0,0.0
473.0,383.0,297.0,253.0,182.0,345.0,311.0,1256.0,370.0,568.0,627.0,798.0,272.0,528.0,206.0,425.0,286.0,826.0,742.0,487.0,629.0,629.0,811.0,491.0,300.0,449.0,619.0,388.0,551.0,720.0,204.0,1011.0,496.0,354.0,1636.0,1574.0,509.0,389.0,964.0,384.0,1552.0,765.0,595.0,1167.0,641.0,822.0,530.0,729.0,513.0,417.0,624.0,420.0,381.0,311.0,926.0,357.0,882.0,339.0,566.0,321.0,260.0,737.0,487.0,1663.0,220.0,237.0,593.0,484.0,786.0,1049.0,1132.0,610.0,359.0,793.0,957.0,808.0,583.0,1195.0,1155.0,635.0,642.0,955.0,1032.0,1142.0,987.0,943.0,565.0,1035.0,428.0,751.0,393.0,784.0,487.0,951.0,664.0,459.0,239.0,981.0,488.0,413.0,114.0,908.0,954.0,177.0,132.0,693.0,744.0,149.0,131.0,78.0,119.0,89.0,248.0,152.0,124.0,107.0,97.0,84.0,96.0,96.0,83.0,100.0,88.0,104.0,71.0,124.0,77.0,113.0,81.0,115.0,83.0,107.0,109.0,0.0,0.0,0.0,0.0,0.0,0.0,0.0,0.0,0.0,0.0,0.0,0.0,0.0,0.0,0.0,0.0,0.0,0.0,0.0,0.0,0.0,0.0
253.0,251.0,265.0,338.0,331.0,129.0,274.0,271.0,243.0,243.0,445.0,502.0,395.0,608.0,711.0,339.0,380.0,373.0,554.0,328.0,609.0,754.0,513.0,230.0,405.0,498.0,1406.0,143.0,682.0,668.0,188.0,1040.0,245.0,703.0,294.0,403.0,641.0,185.0,695.0,202.0,525.0,234.0,249.0,381.0,390.0,731.0,288.0,673.0,222.0,592.0,930.0,201.0,522.0,207.0,612.0,513.0,403.0,119.0,815.0,484.0,410.0,988.0,552.0,278.0,874.0,155.0,656.0,432.0,406.0,333.0,340.0,443.0,726.0,706.0,87.0,844.0,248.0,490.0,716.0,432.0,944.0,384.0,99.0,796.0,210.0,583.0,485.0,732.0,1166.0,923.0,106.0,287.0,575.0,97.0,1091.0,152.0,392.0,100.0,173.0,226.0,122.0,107.0,111.0,129.0,83.0,125.0,75.0,112.0,75.0,124.0,77.0,123.0,76.0,114.0,91.0,108.0,92.0,81.0,109.0,80.0,0.0,0.0,0.0,0.0,0.0,0.0,0.0,0.0,0.0,0.0,0.0,0.0,0.0,0.0,0.0,0.0,0.0,0.0,0.0,0.0,0.0,0.0,0.0,0.0,0.0,0.0,0.0,0.0,0.0,0.0,0.0,0.0,0.0,0.0,0.0
286.0,87.0,222.0,90.0,128.0,209.0,142.0,298.0,116.0,248.0,144.0,123.0,158.0,136.0,192.0,327.0,129.0,176.0,75.0,374.0,185.0,258.0,675.0,267.0,556.0,368.0,225.0,235.0,348.0,382.0,563.0,581.0,193.0,555.0,226.0,606.0,333.0,1062.0,216.0,828.0,407.0,169.0,920.0,875.0,227.0,350.0,725.0,448.0,273.0,470.0,545.0,563.0,350.0,695.0,144.0,568.0,229.0,546.0,662.0,703.0,338.0,565.0,462.0,645.0,943.0,660.0,438.0,553.0,698.0,500.0,653.0,278.0,858.0,193.0,750.0,565.0,625.0,798.0,340.0,970.0,981.0,617.0,819.0,905.0,526.0,775.0,310.0,1272.0,380.0,573.0,496.0,606.0,332.0,812.0,976.0,692.0,424.0,446.0,382.0,494.0,504.0,267.0,1386.0,351.0,271.0,426.0,414.0,113.0,149.0,103.0,94.0,104.0,85.0,106.0,87.0,94.0,95.0,77.0,106.0,81.0,97.0,95.0,97.0,88.0,122.0,79.0,101.0,0.0,0.0,0.0,0.0,0.0,0.0,0.0,0.0,0.0,0.0,0.0,0.0,0.0,0.0,0.0,0.0,0.0,0.0,0.0,0.0,0.0,0.0,0.0,0.0,0.0,0.0,0.0,0.0
342.0,471.0,120.0,404.0,651.0,383.0,260.0,317.0,340.0,633.0,429.0,499.0,193.0,359.0,305.0,224.0,710.0,244.0,318.0,134.0,514.0,153.0,457.0,318.0,741.0,345.0,559.0,311.0,247.0,611.0,240.0,462.0,439.0,580.0,538.0,491.0,318.0,620.0,679.0,557.0,507.0,969.0,611.0,1676.0,966.0,711.0,762.0,356.0,721.0,227.0,1078.0,490.0,584.0,730.0,850.0,497.0,562.0,571.0,927.0,522.0,645.0,420.0,335.0,532.0,806.0,506.0,465.0,390.0,899.0,1169.0,224.0,513.0,596.0,607.0,661.0,654.0,514.0,251.0,221.0,585.0,320.0,1167.0,434.0,361.0,820.0,268.0,774.0,346.0,805.0,440.0,717.0,151.0,794.0,544.0,232.0,346.0,608.0,1580.0,871.0,241.0,735.0,153.0,417.0,276.0,812.0,370.0,556.0,126.0,586.0,147.0,140.0,338.0,110.0,97.0,145.0,109.0,131.0,106.0,108.0,90.0,100.0,87.0,91.0,95.0,84.0,105.0,91.0,119.0,73.0,117.0,75.0,122.0,0.0,0.0,0.0,0.0,0.0,0.0,0.0,0.0,0.0,0.0,0.0,0.0,0.0,0.0,0.0,0.0,0.0,0.0,0.0,0.0,0.0,0.0,0.0
278.0,253.0,140.0,272.0,450.0,260.0,551.0,191.0,317.0,363.0,226.0,717.0,651.0,474.0,206.0,262.0,128.0,1266.0,252.0,335.0,142.0,590.0,202.0,476.0,298.0,416.0,194.0,646.0,422.0,304.0,881.0,241.0,646.0,600.0,453.0,1239.0,1299.0,703.0,817.0,187.0,1149.0,303.0,432.0,213.0,639.0,511.0,480.0,928.0,375.0,765.0,657.0,601.0,511.0,900.0,331.0,621.0,365.0,430.0,699.0,1194.0,995.0,562.0,643.0,593.0,973.0,627.0,250.0,1154.0,720.0,1020.0,574.0,586.0,105.0,1037.0,373.0,792.0,380.0,911.0,247.0,1171.0,1015.0,454.0,322.0,739.0,647.0,462.0,1172.0,1088.0,761.0,258.0,791.0,432.0,357.0,1080.0,204.0,699.0,527.0,725.0,500.0,657.0,380.0,447.0,319.0,128.0,373.0,795.0,166.0,164.0,190.0,753.0,128.0,156.0,116.0,121.0,102.0,113.0,100.0,110.0,94.0,88.0,92.0,107.0,94.0,90.0,121.0,127.0,109.0,96.0,122.0,87.0,0.0,0.0,0.0,0.0,0.0,0.0,0.0,0.0,0.0,0.0,0.0,0.0,0.0,0.0,0.0,0.0,0.0,0.0,0.0,0.0,0.0,0.0,0.0,0.0,0.0
254.0,262.0,411.0,149.0,190.0,739.0,784.0,444.0,284.0,726.0,566.0,505.0,403.0,259.0,417.0,317.0,780.0,452.0,359.0,930.0,332.0,542.0,874.0,190.0,581.0,391.0,437.0,710.0,906.0,319.0,460.0,602.0,903.0,335.0,232.0,418.0,632.0,310.0,654.0,290.0,827.0,443.0,286.0,361.0,448.0,574.0,761.0,1049.0,1095.0,335.0,562.0,425.0,470.0,1137.0,297.0,468.0,686.0,1528.0,311.0,179.0,1005.0,251.0,1959.0,981.0,134.0,909.0,449.0,943.0,461.0,674.0,373.0,854.0,368.0,517.0,708.0,283.0,536.0,462.0,485.0,626.0,435.0,539.0,635.0,690.0,58.0,556.0,923.0,539.0,561.0,496.0,171.0,798.0,386.0,583.0,273.0,737.0,819.0,245.0,553.0,135.0,401.0,689.0,474.0,247.0,239.0,130.0,81.0,119.0,84.0,97.0,83.0,106.0,87.0,102.0,76.0,115.0,80.0,92.0,82.0,94.0,94.0,93.0,119.0,78.0,110.0,0.0,0.0,0.0,0.0,0.0,0.0,0.0,0.0,0.0,0.0,0.0,0.0,0.0,0.0,0.0,0.0,0.0,0.0,0.0,0.0,0.0,0.0,0.0,0.0,0.0,0.0,0.0,0.0,0.0,0.0
300.0,354.0,530.0,279.0,395.0,484.0,225.0,313.0,549.0,118.0,858.0,265.0,258.0,271.0,1040.0,453.0,164.0,316.0,237.0,88.0,1016.0,338.0,145.0,663.0,553.0,255.0,330.0,652.0,568.0,430.0,610.0,777.0,402.0,252.0,1045.0,247.0,410.0,537.0,338.0,795.0,650.0,250.0,204.0,516.0,311.0,563.0,496.0,279.0,649.0,670.0,700.0,874.0,565.0,458.0,609.0,892.0,971.0,298.0,783.0,438.0,611.0,330.0,730.0,596.0,468.0,207.0,209.0,260.0,720.0,543.0,986.0,312.0,477.0,321.0,268.0,572.0,734.0,1320.0,405.0,418.0,220.0,360.0,507.0,843.0,934.0,148.0,649.0,745.0,408.0,317.0,763.0,872.0,290.0,448.0,221.0,422.0,625.0,189.0,294.0,235.0,410.0,140.0,99.0,109.0,98.0,86.0,95.0,104.0,81.0,100.0,82.0,104.0,79.0,93.0,79.0,110.0,70.0,84.0,86.0,80.0,91.0,0.0,0.0,0.0,0.0,0.0,0.0,0.0,0.0,0.0,0.0,0.0,0.0,0.0,0.0,0.0,0.0,0.0,0.0,0.0,0.0,0.0,0.0,0.0,0.0,0.0,0.0,0.0,0.0,0.0,0.0,0.0,0.0,0.0,0.0
392.0,269.0,184.0,214.0,226.0,274.0,230.0,104.0,260.0,396.0,375.0,223.0,464.0,133.0,906.0,471.0,252.0,720.0,726.0,739.0,230.0,180.0,318.0,644.0,968.0,654.0,577.0,458.0,474.0,390.0,976.0,359.0,352.0,690.0,333.0,658.0,821.0,121.0,654.0,604.0,1411.0,253.0,945.0,376.0,879.0,625.0,305.0,767.0,205.0,1232.0,633.0,560.0,85.0,574.0,821.0,347.0,467.0,745.0,669.0,234.0,1269.0,216.0,366.0,852.0,588.0,481.0,605.0,493.0,129.0,338.0,1458.0,436.0,591.0,132.0,567.0,979.0,549.0,831.0,844.0,348.0,1633.0,461.0,688.0,184.0,924.0,654.0,518.0,553.0,361.0,905.0,172.0,448.0,1394.0,416.0,925.0,363.0,412.0,188.0,1254.0,140.0,190.0,276.0,250.0,88.0,186.0,80.0,123.0,145.0,130.0,96.0,119.0,101.0,109.0,92.0,105.0,79.0,85.0,98.0,87.0,104.0,84.0,108.0,84.0,0.0,0.0,0.0,0.0,0.0,0.0,0.0,0.0,0.0,0.0,0.0,0.0,0.0,0.0,0.0,0.0,0.0,0.0,0.0,0.0,0.0,0.0,0.0,0.0,0.0,0.0,0.0,0.0,0.0,0.0,0.0,0.0
274.0,155.0,304.0,119.0,469.0,174.0,400.0,473.0,104.0,808.0,142.0,261.0,217.0,394.0,389.0,127.0,967.0,362.0,497.0,296.0,595.0,346.0,502.0,532.0,350.0,898.0,370.0,237.0,328.0,631.0,827.0,442.0,652.0,831.0,391.0,189.0,438.0,549.0,931.0,368.0,321.0,465.0,955.0,722.0,224.0,918.0,424.0,426.0,320.0,781.0,745.0,470.0,661.0,631.0,167.0,482.0,553.0,431.0,606.0,457.0,174.0,900.0,200.0,681.0,550.0,398.0,974.0,150.0,578.0,699.0,759.0,401.0,620.0,362.0,412.0,933.0,892.0,743.0,139.0,511.0,463.0,180.0,662.0,1103.0,435.0,251.0,353.0,361.0,240.0,389.0,404.0,698.0,416.0,500.0,792.0,583.0,117.0,629.0,536.0,142.0,332.0,386.0,726.0,116.0,180.0,180.0,644.0,119.0,103.0,170.0,222.0,94.0,105.0,121.0,108.0,102.0,99.0,111.0,89.0,117.0,94.0,120.0,71.0,105.0,90.0,105.0,98.0,91.0,105.0,92.0,107.0,0.0,0.0,0.0,0.0,0.0,0.0,0.0,0.0,0.0,0.0,0.0,0.0,0.0,0.0,0.0,0.0,0.0,0.0,0.0,0.0,0.0,0.0,0.0,0.0
387.0,113.0,226.0,81.0,469.0,67.0,391.0,145.0,176.0,416.0,422.0,333.0,694.0,263.0,211.0,422.0,527.0,271.0,684.0,418.0,979.0,407.0,140.0,280.0,248.0,426.0,300.0,221.0,447.0,487.0,195.0,322.0,410.0,396.0,460.0,360.0,254.0,362.0,496.0,490.0,454.0,236.0,517.0,484.0,585.0,520.0,354.0,109.0,527.0,194.0,1164.0,252.0,277.0,1168.0,331.0,424.0,540.0,440.0,365.0,633.0,642.0,208.0,505.0,566.0,818.0,337.0,1052.0,274.0,231.0,1204.0,347.0,576.0,576.0,327.0,1725.0,381.0,582.0,527.0,873.0,380.0,154.0,525.0,302.0,699.0,633.0,730.0,824.0,539.0,249.0,473.0,409.0,438.0,152.0,253.0,570.0,100.0,632.0,629.0,151.0,381.0,227.0,216.0,322.0,79.0,509.0,88.0,127.0,86.0,111.0,122.0,123.0,107.0,101.0,118.0,98.0,115.0,84.0,115.0,99.0,120.0,94.0,109.0,100.0,120.0,92.0,0.0,0.0,0.0,0.0,0.0,0.0,0.0,0.0,0.0,0.0,0.0,0.0,0.0,0.0,0.0,0.0,0.0,0.0,0.0,0.0,0.0,0.0,0.0,0.0,0.0,0.0,0.0,0.0,0.0,0.0
351.0,135.0,582.0,204.0,605.0,310.0,304.0,938.0,1029.0,461.0,189.0,321.0,1274.0,328.0,501.0,473.0,361.0,642.0,223.0,559.0,617.0,870.0,252.0,498.0,526.0,1092.0,376.0,481.0,296.0,873.0,784.0,230.0,790.0,186.0,191.0,462.0,976.0,771.0,583.0,885.0,462.0,533.0,409.0,503.0,1808.0,323.0,1804.0,296.0,1758.0,326.0,794.0,377.0,479.0,942.0,339.0,749.0,407.0,452.0,870.0,475.0,411.0,682.0,392.0,500.0,601.0,401.0,1384.0,431.0,2074.0,554.0,455.0,472.0,732.0,711.0,377.0,518.0,574.0,866.0,311.0,583.0,959.0,440.0,499.0,248.0,1106.0,340.0,432.0,172.0,205.0,187.0,93.0,139.0,344.0,93.0,146.0,104.0,133.0,97.0,133.0,94.0,111.0,91.0,128.0,85.0,111.0,98.0,113.0,101.0,116.0,107.0,95.0,128.0,92.0,0.0,0.0,0.0,0.0,0.0,0.0,0.0,0.0,0.0,0.0,0.0,0.0,0.0,0.0,0.0,0.0,0.0,0.0,0.0,0.0,0.0,0.0,0.0,0.0,0.0,0.0,0.0,0.0,0.0,0.0,0.0,0.0,0.0,0.0,0.0,0.0,0.0,0.0,0.0,0.0,0.0,0.0
572.0,347.0,650.0,781.0,531.0,407.0,287.0,630.0,201.0,175.0,299.0,557.0,248.0,421.0,409.0,308.0,452.0,195.0,968.0,251.0,628.0,457.0,1015.0,307.0,155.0,414.0,145.0,683.0,511.0,504.0,436.0,367.0,176.0,553.0,216.0,260.0,993.0,236.0,147.0,478.0,352.0,778.0,843.0,671.0,394.0,821.0,206.0,681.0,119.0,570.0,499.0,410.0,290.0,680.0,659.0,544.0,345.0,426.0,322.0,333.0,552.0,307.0,295.0,363.0,367.0,602.0,214.0,567.0,262.0,319.0,1167.0,639.0,551.0,370.0,227.0,629.0,271.0,846.0,755.0,375.0,286.0,576.0,422.0,189.0,407.0,373.0,1167.0,233.0,167.0,389.0,356.0,266.0,277.0,826.0,144.0,100.0,155.0,107.0,123.0,84.0,143.0,87.0,103.0,99.0,80.0,121.0,101.0,111.0,87.0,110.0,72.0,109.0,108.0,96.0,0.0,0.0,0.0,0.0,0.0,0.0,0.0,0.0,0.0,0.0,0.0,0.0,0.0,0.0,0.0,0.0,0.0,0.0,0.0,0.0,0.0,0.0,0.0,0.0,0.0,0.0,0.0,0.0,0.0,0.0,0.0,0.0,0.0,0.0,0.0,0.0,0.0,0.0,0.0,0.0,0.0
254.0,164.0,195.0,222.0,225.0,297.0,323.0,751.0,334.0,165.0,498.0,446.0,475.0,206.0,509.0,553.0,313.0,1164.0,448.0,586.0,253.0,127.0,240.0,470.0,376.0,1211.0,293.0,481.0,888.0,340.0,790.0,220.0,229.0,174.0,625.0,512.0,438.0,601.0,507.0,308.0,760.0,263.0,462.0,329.0,303.0,889.0,768.0,662.0,306.0,1024.0,206.0,1973.0,186.0,656.0,146.0,718.0,519.0,708.0,515.0,503.0,392.0,844.0,1364.0,528.0,336.0,467.0,720.0,184.0,581.0,374.0,442.0,453.0,520.0,194.0,1583.0,506.0,676.0,670.0,955.0,462.0,385.0,1134.0,840.0,157.0,733.0,334.0,706.0,760.0,377.0,473.0,345.0,516.0,251.0,805.0,337.0,425.0,732.0,355.0,862.0,102.0,263.0,124.0,460.0,84.0,216.0,220.0,137.0,251.0,312.0,349.0,269.0,207.0,163.0,306.0,138.0,150.0,212.0,309.0,106.0,111.0,143.0,100.0,86.0,104.0,89.0,104.0,96.0,108.0,98.0,89.0,114.0,81.0,115.0,87.0,131.0,79.0,136.0,91.0,0.0,0.0,0.0,0.0,0.0,0.0,0.0,0.0,0.0,0.0,0.0,0.0,0.0,0.0,0.0,0.0,0.0
354.0,189.0,760.0,128.0,423.0,434.0,483.0,235.0,291.0,359.0,579.0,733.0,648.0,107.0,403.0,280.0,422.0,772.0,335.0,259.0,569.0,425.0,623.0,1054.0,260.0,508.0,258.0,160.0,1697.0,626.0,245.0,376.0,1006.0,528.0,447.0,567.0,357.0,366.0,310.0,588.0,681.0,463.0,339.0,672.0,224.0,1029.0,1113.0,349.0,272.0,256.0,989.0,239.0,629.0,384.0,789.0,445.0,1172.0,281.0,1412.0,315.0,314.0,234.0,661.0,391.0,1123.0,322.0,312.0,123.0,885.0,333.0,627.0,450.0,474.0,228.0,642.0,330.0,945.0,127.0,948.0,192.0,366.0,749.0,457.0,513.0,475.0,331.0,308.0,529.0,496.0,137.0,591.0,296.0,153.0,471.0,197.0,106.0,144.0,108.0,113.0,93.0,89.0,83.0,100.0,101.0,81.0,100.0,131.0,93.0,84.0,93.0,76.0,101.0,85.0,94.0,0.0,0.0,0.0,0.0,0.0,0.0,0.0,0.0,0.0,0.0,0.0,0.0,0.0,0.0,0.0,0.0,0.0,0.0,0.0,0.0,0.0,0.0,0.0,0.0,0.0,0.0,0.0,0.0,0.0,0.0,0.0,0.0,0.0,0.0,0.0,0.0,0.0,0.0,0.0,0.0,0.0
289.0,251.0,213.0,489.0,328.0,629.0,476.0,677.0,257.0,818.0,363.0,235.0,318.0,405.0,480.0,164.0,246.0,93.0,428.0,230.0,717.0,301.0,511.0,362.0,375.0,518.0,1159.0,1043.0,503.0,274.0,605.0,156.0,502.0,296.0,284.0,169.0,695.0,792.0,277.0,268.0,645.0,125.0,929.0,597.0,305.0,1115.0,908.0,726.0,583.0,499.0,289.0,662.0,737.0,287.0,369.0,872.0,284.0,615.0,218.0,379.0,488.0,268.0,614.0,403.0,388.0,1350.0,1202.0,472.0,1037.0,971.0,388.0,486.0,553.0,298.0,309.0,764.0,403.0,323.0,316.0,397.0,431.0,197.0,1111.0,1225.0,473.0,728.0,565.0,266.0,887.0,256.0,335.0,917.0,276.0,936.0,530.0,219.0,163.0,424.0,49.0,672.0,173.0,620.0,293.0,784.0,645.0,188.0,645.0,161.0,504.0,280.0,646.0,103.0,446.0,194.0,830.0,185.0,307.0,256.0,69.0,571.0,206.0,157.0,219.0,171.0,486.0,160.0,196.0,132.0,118.0,295.0,472.0,81.0,667.0,163.0,275.0,98.0,99.0,147.0,117.0,143.0,107.0,123.0,107.0,106.0,118.0,110.0,130.0,81.0,114.0,86.0,124.0,84.0,121.0,102.0,113.0
351.0,139.0,132.0,101.0,258.0,112.0,398.0,397.0,114.0,287.0,145.0,574.0,110.0,275.0,479.0,476.0,447.0,454.0,379.0,112.0,196.0,420.0,522.0,150.0,385.0,730.0,461.0,187.0,468.0,643.0,444.0,308.0,387.0,228.0,823.0,434.0,251.0,421.0,146.0,546.0,330.0,1074.0,330.0,305.0,696.0,337.0,741.0,240.0,510.0,1223.0,449.0,501.0,311.0,521.0,596.0,176.0,514.0,996.0,350.0,368.0,385.0,161.0,344.0,387.0,415.0,663.0,94.0,803.0,295.0,482.0,356.0,632.0,141.0,738.0,663.0,678.0,652.0,510.0,386.0,193.0,600.0,268.0,956.0,754.0,1026.0,256.0,532.0,209.0,407.0,579.0,308.0,374.0,191.0,239.0,137.0,177.0,145.0,244.0,81.0,121.0,154.0,102.0,101.0,89.0,132.0,75.0,127.0,84.0,99.0,67.0,124.0,81.0,102.0,85.0,96.0,95.0,101.0,99.0,0.0,0.0,0.0,0.0,0.0,0.0,0.0,0.0,0.0,0.0,0.0,0.0,0.0,0.0,0.0,0.0,0.0,0.0,0.0,0.0,0.0,0.0,0.0,0.0,0.0,0.0,0.0,0.0,0.0,0.0,0.0,0.0,0.0,0.0,0.0,0.0,0.0
702.0,108.0,136.0,171.0,120.0,373.0,168.0,166.0,107.0,409.0,57.0,551.0,286.0,525.0,960.0,539.0,478.0,566.0,364.0,185.0,711.0,263.0,314.0,570.0,637.0,345.0,825.0,337.0,560.0,658.0,779.0,266.0,457.0,488.0,483.0,218.0,435.0,571.0,699.0,457.0,429.0,372.0,380.0,843.0,1165.0,371.0,611.0,420.0,335.0,370.0,758.0,388.0,428.0,994.0,509.0,203.0,563.0,544.0,560.0,424.0,540.0,357.0,940.0,360.0,516.0,525.0,380.0,457.0,364.0,377.0,794.0,550.0,239.0,551.0,181.0,585.0,644.0,532.0,417.0,219.0,1481.0,420.0,755.0,347.0,297.0,186.0,932.0,262.0,117.0,496.0,167.0,430.0,164.0,137.0,208.0,190.0,115.0,161.0,106.0,119.0,69.0,146.0,92.0,111.0,107.0,132.0,84.0,114.0,87.0,104.0,99.0,99.0,100.0,88.0,111.0,0.0,0.0,0.0,0.0,0.0,0.0,0.0,0.0,0.0,0.0,0.0,0.0,0.0,0.0,0.0,0.0,0.0,0.0,0.0,0.0,0.0,0.0,0.0,0.0,0.0,0.0,0.0,0.0,0.0,0.0,0.0,0.0,0.0,0.0,0.0,0.0,0.0,0.0,0.0,0.0
323.0,129.0,495.0,191.0,315.0,293.0,335.0,251.0,238.0,334.0,606.0,402.0,1475.0,191.0,308.0,149.0,362.0,217.0,1548.0,222.0,220.0,330.0,745.0,498.0,623.0,405.0,366.0,144.0,376.0,996.0,562.0,506.0,293.0,516.0,650.0,188.0,1265.0,166.0,1323.0,104.0,711.0,124.0,449.0,382.0,348.0,156.0,435.0,294.0,600.0,660.0,1534.0,144.0,726.0,449.0,226.0,532.0,411.0,1306.0,376.0,977.0,347.0,1076.0,339.0,491.0,1213.0,224.0,744.0,1112.0,465.0,571.0,419.0,1527.0,456.0,954.0,770.0,1030.0,1035.0,320.0,675.0,227.0,534.0,292.0,751.0,564.0,552.0,239.0,373.0,914.0,664.0,508.0,592.0,913.0,116.0,741.0,407.0,671.0,241.0,298.0,831.0,163.0,197.0,130.0,297.0,635.0,307.0,117.0,482.0,87.0,129.0,141.0,104.0,99.0,127.0,123.0,82.0,115.0,80.0,130.0,84.0,106.0,81.0,127.0,88.0,108.0,96.0,99.0,110.0,0.0,0.0,0.0,0.0,0.0,0.0,0.0,0.0,0.0,0.0,0.0,0.0,0.0,0.0,0.0,0.0,0.0,0.0,0.0,0.0,0.0,0.0,0.0,0.0,0.0,0.0,0.0,0.0
254.0,207.0,243.0,196.0,420.0,362.0,358.0,165.0,479.0,477.0,172.0,241.0,519.0,379.0,187.0,274.0,565.0,79.0,580.0,290.0,635.0,764.0,210.0,589.0,696.0,165.0,384.0,618.0,184.0,653.0,515.0,344.0,864.0,355.0,654.0,1021.0,355.0,349.0,936.0,701.0,165.0,915.0,378.0,1037.0,664.0,502.0,774.0,279.0,1173.0,112.0,726.0,551.0,707.0,447.0,338.0,1088.0,304.0,245.0,527.0,684.0,812.0,1319.0,422.0,480.0,539.0,576.0,247.0,930.0,118.0,511.0,490.0,884.0,568.0,156.0,2091.0,203.0,541.0,633.0,648.0,683.0,653.0,352.0,394.0,554.0,366.0,537.0,185.0,888.0,492.0,785.0,379.0,441.0,646.0,324.0,922.0,834.0,264.0,854.0,500.0,660.0,211.0,176.0,1061.0,232.0,288.0,99.0,441.0,212.0,829.0,390.0,138.0,488.0,120.0,226.0,150.0,133.0,134.0,79.0,167.0,171.0,113.0,151.0,124.0,126.0,126.0,89.0,127.0,86.0,112.0,101.0,106.0,101.0,103.0,101.0,0.0,0.0,0.0,0.0,0.0,0.0,0.0,0.0,0.0,0.0,0.0,0.0,0.0,0.0,0.0,0.0,0.0,0.0,0.0,0.0,0.0
336.0,264.0,163.0,359.0,117.0,259.0,310.0,384.0,235.0,124.0,195.0,455.0,238.0,242.0,315.0,270.0,339.0,315.0,613.0,130.0,715.0,362.0,652.0,269.0,588.0,139.0,313.0,326.0,470.0,492.0,296.0,266.0,326.0,353.0,462.0,310.0,235.0,350.0,326.0,128.0,440.0,300.0,227.0,475.0,151.0,405.0,501.0,744.0,266.0,813.0,417.0,1000.0,215.0,1039.0,248.0,523.0,187.0,1263.0,318.0,694.0,436.0,185.0,339.0,574.0,70.0,725.0,146.0,377.0,189.0,1071.0,314.0,721.0,176.0,568.0,275.0,286.0,242.0,650.0,500.0,567.0,447.0,755.0,206.0,526.0,742.0,145.0,437.0,497.0,231.0,312.0,364.0,423.0,137.0,237.0,201.0,167.0,542.0,115.0,186.0,155.0,146.0,125.0,177.0,177.0,185.0,104.0,163.0,113.0,148.0,98.0,117.0,121.0,85.0,113.0,89.0,105.0,106.0,0.0,0.0,0.0,0.0,0.0,0.0,0.0,0.0,0.0,0.0,0.0,0.0,0.0,0.0,0.0,0.0,0.0,0.0,0.0,0.0,0.0,0.0,0.0,0.0,0.0,0.0,0.0,0.0,0.0,0.0,0.0,0.0,0.0,0.0,0.0,0.0,0.0,0.0
466.0,256.0,366.0,363.0,233.0,275.0,313.0,139.0,353.0,538.0,181.0,403.0,405.0,401.0,329.0,752.0,165.0,822.0,273.0,442.0,364.0,317.0,558.0,431.0,237.0,280.0,493.0,532.0,574.0,484.0,602.0,596.0,510.0,936.0,428.0,603.0,365.0,279.0,1107.0,328.0,448.0,301.0,673.0,346.0,625.0,131.0,318.0,737.0,722.0,201.0,325.0,474.0,814.0,276.0,692.0,145.0,823.0,306.0,468.0,319.0,280.0,747.0,465.0,349.0,1535.0,295.0,357.0,1066.0,458.0,260.0,377.0,195.0,558.0,591.0,511.0,662.0,329.0,512.0,227.0,308.0,208.0,307.0,1418.0,182.0,973.0,146.0,721.0,215.0,213.0,699.0,319.0,489.0,229.0,400.0,181.0,491.0,185.0,573.0,664.0,555.0,497.0,460.0,345.0,382.0,302.0,233.0,242.0,643.0,453.0,99.0,140.0,94.0,130.0,101.0,274.0,91.0,120.0,115.0,118.0,119.0,108.0,106.0,132.0,110.0,193.0,131.0,105.0,235.0,87.0,109.0,113.0,156.0,105.0,113.0,88.0,105.0,109.0,102.0,110.0,107.0,119.0,78.0,178.0,93.0,114.0,112.0,125.0,91.0,0.0,0.0,0.0,0.0,0.0,0.0,0.0
259.0,109.0,104.0,456.0,248.0,313.0,941.0,969.0,261.0,946.0,291.0,358.0,553.0,141.0,191.0,269.0,496.0,182.0,173.0,816.0,138.0,446.0,794.0,316.0,823.0,308.0,458.0,638.0,264.0,341.0,367.0,238.0,277.0,528.0,128.0,425.0,386.0,390.0,958.0,400.0,270.0,262.0,712.0,677.0,221.0,476.0,351.0,491.0,1008.0,357.0,242.0,264.0,738.0,440.0,623.0,207.0,548.0,501.0,295.0,467.0,1044.0,436.0,777.0,231.0,937.0,277.0,855.0,266.0,803.0,223.0,403.0,286.0,1171.0,221.0,277.0,636.0,314.0,258.0,284.0,1524.0,628.0,352.0,712.0,568.0,438.0,848.0,505.0,352.0,324.0,283.0,456.0,149.0,861.0,733.0,272.0,129.0,356.0,273.0,271.0,189.0,114.0,156.0,130.0,517.0,113.0,166.0,107.0,120.0,115.0,101.0,109.0,117.0,151.0,94.0,122.0,97.0,119.0,77.0,129.0,92.0,100.0,104.0,97.0,110.0,0.0,0.0,0.0,0.0,0.0,0.0,0.0,0.0,0.0,0.0,0.0,0.0,0.0,0.0,0.0,0.0,0.0,0.0,0.0,0.0,0.0,0.0,0.0,0.0,0.0,0.0,0.0,0.0,0.0,0.0,0.0
264.0,136.0,141.0,455.0,177.0,242.0,226.0,438.0,231.0,538.0,273.0,223.0,491.0,641.0,140.0,626.0,277.0,494.0,112.0,384.0,341.0,404.0,137.0,351.0,565.0,310.0,556.0,231.0,406.0,232.0,737.0,261.0,362.0,170.0,743.0,955.0,274.0,202.0,156.0,363.0,229.0,269.0,1124.0,873.0,328.0,329.0,1207.0,564.0,137.0,857.0,612.0,379.0,731.0,742.0,446.0,795.0,642.0,530.0,611.0,214.0,356.0,567.0,647.0,668.0,848.0,852.0,351.0,200.0,815.0,1355.0,477.0,945.0,332.0,469.0,386.0,545.0,442.0,748.0,300.0,740.0,75.0,814.0,801.0,334.0,424.0,771.0,267.0,345.0,114.0,154.0,508.0,166.0,206.0,133.0,104.0,85.0,115.0,71.0,131.0,102.0,99.0,98.0,136.0,116.0,121.0,101.0,117.0,103.0,98.0,96.0,95.0,112.0,93.0,0.0,0.0,0.0,0.0,0.0,0.0,0.0,0.0,0.0,0.0,0.0,0.0,0.0,0.0,0.0,0.0,0.0,0.0,0.0,0.0,0.0,0.0,0.0,0.0,0.0,0.0,0.0,0.0,0.0,0.0,0.0,0.0,0.0,0.0,0.0,0.0,0.0,0.0,0.0,0.0,0.0,0.0
267.0,186.0,385.0,234.0,289.0,442.0,554.0,651.0,877.0,600.0,195.0,515.0,417.0,232.0,186.0,1105.0,325.0,269.0,377.0,468.0,440.0,217.0,383.0,420.0,545.0,535.0,483.0,380.0,656.0,234.0,331.0,531.0,485.0,92.0,598.0,137.0,516.0,253.0,278.0,337.0,390.0,907.0,306.0,756.0,225.0,407.0,409.0,381.0,178.0,438.0,353.0,342.0,416.0,565.0,898.0,313.0,382.0,401.0,408.0,1059.0,785.0,470.0,355.0,201.0,428.0,318.0,523.0,416.0,502.0,251.0,1133.0,432.0,334.0,332.0,812.0,239.0,610.0,891.0,369.0,317.0,362.0,398.0,716.0,482.0,675.0,346.0,509.0,527.0,488.0,504.0,409.0,1187.0,251.0,277.0,221.0,191.0,402.0,179.0,719.0,241.0,368.0,158.0,438.0,96.0,130.0,130.0,130.0,91.0,124.0,104.0,103.0,121.0,95.0,96.0,84.0,115.0,91.0,115.0,91.0,110.0,103.0,96.0,77.0,0.0,0.0,0.0,0.0,0.0,0.0,0.0,0.0,0.0,0.0,0.0,0.0,0.0,0.0,0.0,0.0,0.0,0.0,0.0,0.0,0.0,0.0,0.0,0.0,0.0,0.0,0.0,0.0,0.0,0.0,0.0,0.0
344.0,125.0,446.0,196.0,443.0,471.0,702.0,535.0,223.0,471.0,122.0,355.0,303.0,308.0,548.0,207.0,127.0,202.0,551.0,619.0,310.0,425.0,447.0,517.0,680.0,319.0,306.0,191.0,764.0,752.0,571.0,323.0,188.0,554.0,86.0,535.0,370.0,154.0,844.0,197.0,533.0,406.0,353.0,199.0,665.0,452.0,486.0,479.0,266.0,249.0,179.0,277.0,384.0,314.0,212.0,452.0,238.0,188.0,458.0,757.0,845.0,317.0,257.0,342.0,412.0,456.0,407.0,230.0,287.0,1079.0,511.0,607.0,845.0,269.0,518.0,258.0,442.0,136.0,784.0,317.0,269.0,582.0,160.0,499.0,477.0,318.0,358.0,325.0,940.0,240.0,583.0,401.0,1067.0,245.0,284.0,116.0,611.0,231.0,169.0,226.0,330.0,330.0,79.0,164.0,108.0,151.0,421.0,96.0,118.0,101.0,106.0,105.0,129.0,89.0,139.0,97.0,118.0,84.0,100.0,107.0,111.0,93.0,98.0,110.0,113.0,106.0,98.0,0.0,0.0,0.0,0.0,0.0,0.0,0.0,0.0,0.0,0.0,0.0,0.0,0.0,0.0,0.0,0.0,0.0,0.0,0.0,0.0,0.0,0.0,0.0,0.0,0.0,0.0,0.0,0.0
296.0,522.0,183.0,536.0,273.0,759.0,278.0,382.0,171.0,350.0,690.0,461.0,259.0,601.0,210.0,345.0,650.0,526.0,230.0,552.0,188.0,556.0,385.0,690.0,352.0,519.0,344.0,461.0,285.0,750.0,863.0,343.0,372.0,605.0,242.0,389.0,641.0,115.0,132.0,692.0,1359.0,540.0,935.0,502.0,314.0,535.0,117.0,776.0,235.0,406.0,261.0,486.0,239.0,867.0,229.0,881.0,306.0,387.0,370.0,652.0,282.0,1184.0,280.0,873.0,232.0,156.0,386.0,285.0,670.0,697.0,160.0,499.0,437.0,358.0,157.0,212.0,607.0,222.0,301.0,402.0,685.0,350.0,240.0,961.0,217.0,104.0,996.0,127.0,1141.0,367.0,347.0,299.0,324.0,446.0,499.0,472.0,146.0,697.0,231.0,136.0,621.0,579.0,149.0,122.0,182.0,158.0,133.0,125.0,90.0,145.0,106.0,101.0,112.0,109.0,141.0,144.0,91.0,113.0,111.0,101.0,90.0,93.0,0.0,0.0,0.0,0.0,0.0,0.0,0.0,0.0,0.0,0.0,0.0,0.0,0.0,0.0,0.0,0.0,0.0,0.0,0.0,0.0,0.0,0.0,0.0,0.0,0.0,0.0,0.0,0.0,0.0,0.0,0.0,0.0,0.0
