MAV,STD,RMS,VAR,WL,DMAV,SSC,Entropy,MeanD,Dedo
1052.5062344051105,1076.9381335650457,1499.753301243663,1159795.7435265642,58642.54162931147,918.0597255896035,76,7.299843754172401,-4.371786825908095,Anular
811.2636146284793,923.9489253820672,1229.5650731599126,853681.6167146767,41470.333196325,791.8448111535728,74,6.824374774492823,-3.393713127780173,Anular
750.3063761578508,854.256124124186,1136.9754543114827,729753.5256036768,42992.019944119835,730.8347549637153,82,6.746711802935155,-1.3134918335989383,Anular
873.9816087462416,890.239766828765,1247.5458688441092,792526.8424433339,50888.965919920876,792.2195445417096,84,6.860581202771168,-1.5247482890705966,Anular
763.1602133052536,816.546899811207,1117.659317843954,666748.8395912934,42557.470825924,691.3627355827465,83,6.785472387603548,-0.9689388773197528,Anular
763.0891665831829,782.2061887332297,1092.7724364428223,611846.5216925651,43098.22628231475,676.4657516454291,84,6.8513362333270225,-1.20213657995884,Anular
673.5479301006216,654.1460236677194,937.931275637102,427907.02028028853,46832.80886909453,518.5823930075793,77,7.333996641991372,-0.9964891444448061,Anular
619.333014465472,564.6513358757409,837.8546706756845,318831.1311062587,35571.495739320606,475.09501438560187,73,7.215228989837566,-2.118871651177319,Anular
684.5116590683297,641.8403888754385,938.3577655629281,411959.0847917741,42944.32612070978,548.2684115455893,74,6.998428408142519,-1.6383395704908248,Anular
608.1342216160149,543.9637137640848,815.9189625155989,295896.5218920151,26945.684795457862,482.6628177800431,71,6.96561896091213,-3.182338007022385,Anular
683.877748027633,647.6703851972336,941.8947404614166,419476.9278615329,37807.54841550818,550.2494126451385,71,7.0420788769625915,-0.9686701967664045,Anular
578.1613148468208,545.6408862531644,794.9808065208516,297723.97675113863,32650.405021024922,479.36016245716604,84,6.929407257686222,-0.6624900386779723,Anular
576.0702150891658,507.0397813343521,767.4283240592994,257089.33985558758,33457.681640742325,441.8975944124442,76,6.99262192636013,-1.5771252351641554,Anular
585.5540833089632,494.04869278234213,766.1316435964128,244084.1108399411,27306.8238260129,431.42101967974787,78,7.079933344937282,-1.8346413884978126,Anular
462.80633801439467,420.77300648228106,625.4915103264248,177049.92298413772,20014.14302058365,379.22811641353445,80,6.9291058200195925,-0.5185749645189552,Anular
575.9005316680776,477.310885133691,747.9887054245419,227825.68106710757,28110.42699082561,413.05077461764796,79,7.059343895051894,-1.2920116636868408,Anular
549.1328167416424,526.2352938480094,760.5724389654881,276923.58449130075,31265.938349010547,447.26214818512193,81,7.001460248393014,-6.986771592103713,Anular
572.7828137765653,604.3023993135333,832.6232891133252,365181.389816093,27446.309034621558,502.8911188131831,82,6.782527030188228,-0.3047982830102794,Anular
533.7965773811968,492.3746858085042,726.2035646076814,242432.83122502323,24345.776753533268,425.6340571441912,80,6.965592360275051,-2.909878606110305,Anular
490.1243814119351,468.92756027464833,678.3177471064471,219893.05678513396,29956.461792034333,389.0163874735982,78,6.899688332417052,-0.2182237632982989,Anular
558.9439081015382,532.8952761409457,772.266578156245,283977.37533333484,25011.394418658972,455.92259171898434,76,6.908937936547226,-1.5939335668412238,Anular
521.572687532876,485.7470280317791,712.7329399024387,235950.175241706,26341.20795464597,413.5132274812788,70,6.946026446913682,-0.7759251188481459,Anular
793.2071506706257,601.8002529124869,995.6611513364102,362163.54440553323,52662.6279720583,507.474215213369,80,7.261723748237437,-1.9126409261272566,Anular
574.2013720566155,682.1938098166667,891.6474565423475,465388.3941521784,25578.274139517533,591.9595098748667,80,6.853289829339752,-1.2723153497633704,Anular
678.1048754824908,777.551964051007,1031.7040655889184,604587.0567995785,39688.44807523259,666.5488026791712,73,6.761114166750156,-0.9383414108588496,Anular
690.9146763144959,705.3000342125805,987.3252899662962,497448.1382602672,33733.90672562525,618.6841659592781,77,6.727972004657364,-1.9302876430458968,Anular
666.0350796126138,672.5783897231845,945.7439799756344,452361.69032263185,40200.06475174166,579.1913965807314,81,7.245629842114206,-1.358335087595064,Anular
508.56435053884246,491.59579143319485,707.3217943721404,241666.42215482923,24009.8296794444,423.0529603392449,73,6.8252038605997996,-0.5920322439980796,Anular
463.41584835715906,458.0827492253563,651.608819497132,209839.80513786068,28148.817501844198,371.4859544887074,77,6.806812793536765,-0.6437723315267356,Anular
579.0702924725665,577.1954646756625,817.6044325139251,333154.604442154,25182.020529170586,504.6543288576879,78,6.8165286241432765,-1.8507614418869036,Anular
601.8878430492975,648.1094786917361,884.4856539145277,420045.89637007384,24049.12930128083,560.2910291899537,76,6.604225721395471,-2.0323438983463276,Anular
663.1134232970056,773.8173313221029,1019.0744204478566,598793.2622544612,37772.15146415487,603.5824090151374,78,6.663097257316647,-0.18310765213520797,Anular
491.5109335074044,510.9650948668472,708.9910619532565,261085.3281722862,26650.096791678923,434.9854928291647,75,6.866668131447741,0.3456458890093027,Anular
615.3215248394852,624.0483941555995,876.388599411797,389436.39824818244,35532.5853864064,512.8837327546056,85,6.906550170368326,-1.6514576454795362,Anular
601.52398978137,837.3595637635002,1031.0199558246663,701171.0390261994,39456.81830715618,547.9175475882381,76,6.521911484332168,-1.0118932080851681,Anular
526.4268423511934,466.4437050468192,703.3455411998091,217569.7299778041,21601.81144012168,415.2238966867368,74,6.917151839510768,-1.0889261014821718,Anular
409.07887074549456,361.8143851753525,546.1274318418983,130909.64931981836,22260.087738611786,319.7929494455768,84,6.867450969610018,-2.313081480941763,Anular
562.0938703959375,513.8169885807855,761.5493528924519,264007.8977542271,26517.066921260353,451.75911918805986,73,6.957744368021379,-0.7375182338421126,Anular
477.37550443677833,429.50526133250935,642.154297461736,184474.76951230713,17415.999496035853,390.14696525634434,78,6.845525875986935,-1.289437454706163,Anular
609.0066985220511,588.1285574461691,846.6311823506385,345895.2000837119,25334.973683584685,502.65709685060415,69,6.886277104618303,-1.394104359752466,Anular
548.2949461100535,503.68071318784877,744.5277756855324,253694.26083741998,31922.0320847997,438.96648851409077,75,6.900627332707939,-0.7789288551892182,Anular
441.63625537428777,420.6434875544458,609.9045217761468,176940.94362196722,22199.97946391691,368.13256824912554,81,6.640091923837481,-1.2512484194512132,Anular
439.88721477647545,422.4476792327069,609.8875334132556,178462.04168910004,20833.42778035158,359.4701348930909,78,7.076108366847404,-1.5634709076558149,Anular
497.5358665934172,446.0004654583237,668.1753914474133,198916.41518904138,25066.022791131978,383.56838850446997,79,6.876883445571907,-2.2444333416274462,Anular
534.5162441712714,462.21511391578485,706.6473143054775,213642.81153218198,27356.24229311855,392.4691966352111,79,7.01129659477945,-4.066042801834781,Anular
210.76244610774683,283.41935082752735,341.2014678934628,80326.52842349702,22896.783941833164,169.04338208795295,79,7.623361555222174,-2.6159509545722575,Anular
213.62582511474903,258.4870003451474,331.5831930729282,66815.52934743222,15710.775894664228,171.634588733491,86,7.543062762790863,-4.869658925815357,Anular
334.41494179399126,390.27726865683724,510.746145125572,152316.34643024113,27317.63563663961,301.14415053489506,89,7.455239838901072,-2.232748943229804,Anular
672.065851410209,764.4801107349389,1017.8911279410156,584429.8397093044,56475.08101669038,644.1223584490134,77,6.797431447795956,-1.2105038347938624,Anular
371.263885501541,434.20425443767675,567.2678055115013,188533.33457177872,29996.561418653302,336.7767731075089,72,7.523409687353623,-2.240049526477462,Anular
327.49611698945574,399.618986558132,507.85019712324413,159695.3344177485,35323.55993313597,297.1612685923588,86,7.607030425315122,-1.90975005135699,Anular
372.0891246016013,385.4906190397474,533.5124693323864,148603.01736764764,33798.98176666234,304.8978939898341,80,7.42563510065792,-1.5268129353118867,Anular
700.6190808633401,707.3398990298668,995.588684763629,500329.7327595823,33818.03227885293,611.1953496088246,72,6.666325281344087,-1.4693401865078752,Anular
499.9327922415804,440.80802900984867,666.5167028649848,194311.7184395476,21140.10425858898,408.3632789988431,82,6.887244792197979,-3.7329632415419085,Anular
548.5325048442328,550.1275044674561,776.8707614798486,302640.2711715909,25462.709096993578,485.00662726825607,76,6.8064121083583915,-1.3294236764352358,Anular
639.3231196137002,609.949743473779,883.6134566858533,372038.6895637288,25338.50781338769,545.8930856350717,83,6.696797277926768,-0.5850011296647982,Anular
658.652351998078,642.6057874779971,920.1984127854251,412942.1981002168,32877.17679077585,555.2608789195756,77,6.886481664285714,-1.1371771462811253,Anular
568.2113879929851,508.8416209624424,762.7476494022122,258919.7952236859,26055.662886740003,446.6094390729376,74,6.8535021592418115,-1.5090370330226097,Anular
594.0171319517924,601.7254445872003,845.5352527931029,362073.5106636638,26257.837466643214,524.2243384589087,82,6.649783090446549,-5.7052043966361605,Anular
648.7151630467753,598.8802992965593,882.8867286647486,358657.61288553645,26733.976308259775,534.9182663896817,80,6.961829638353625,-1.7331635987739429,Anular
629.2477096510223,629.4530879819126,890.0358813390743,396211.1899699654,38512.565731751594,526.0415849239413,73,6.751969589273308,-2.0658276358453733,Anular
730.1347766005525,734.2194391371144,1035.4588242940215,539078.1848068187,37473.577056168855,634.4607825720045,79,6.659040183356399,-2.604512433333761,Anular
686.4197750477666,674.0091095267956,961.9008364900334,454288.2797251039,41356.925364520735,584.4501814069995,82,7.0884031549472,-1.997379553437259,Anular
594.0112753607502,542.3008342881993,804.3255498399777,294090.19486967707,28044.231454487384,487.23153601759117,81,7.100739395072319,-1.3696140478847025,Anular
740.7195669819288,695.683010785221,1016.1891203929933,483974.85149518994,37337.35915409096,614.9885992353845,75,6.862425476518972,-0.5017990545855866,Anular
599.8428127085128,629.3865474258456,869.447425689838,396127.42608062626,36494.33175206411,531.6125557976139,70,6.634011265343542,-2.0805393995756303,Anular
646.7592211264501,658.1522228694197,922.7468984396804,433164.34846795833,34424.108454540845,553.53401769118,75,6.794347335779868,-0.8544545819613589,Anular
701.7729997524318,711.5795371245875,999.4152194338293,506345.4376544423,43907.16426089489,569.9581476004792,81,6.846760625763258,-2.580822152118979,Anular
788.6467561352417,870.043022895263,1174.282149933042,756974.8616887272,48803.86508183633,739.3852007060184,80,6.677691698762942,-0.8381507444222267,Anular
834.560620546722,855.6409372793955,1195.2459340720188,732121.4135483624,38246.604746757956,760.7963719988159,81,6.700990207094919,-1.4987558474141836,Anular
744.9551972232621,806.0030081695454,1097.5422976123998,649640.8491783562,46283.848437826615,681.0683963458583,71,6.609211343402488,-0.5529820180816858,Anular
708.9884558237045,778.5158131831076,1052.972697588801,606086.8713761554,39089.88584876942,667.2898758355414,80,6.642029979589948,-1.5068834142855503,Anular
612.6876093464157,706.7650759488502,935.3624854716005,499516.8725809839,30177.35415042822,599.555639014312,81,6.3630063360231865,-2.7961252149243716,Anular
882.526445732418,846.7031840701953,1223.0123504411972,716906.2819146072,51047.49887506277,735.8589924766662,70,6.845158063643996,-0.5891765419554926,Anular
650.5405147280491,869.7875600502597,1086.1553116018074,756530.3996181841,26125.383262274703,731.4754689565523,79,6.286103271911381,-14.612399628557796,Anular
620.9790916687123,864.9454035690692,1064.7748980159888,748130.55115526,34993.07333435011,674.34181766234,74,6.453492872656268,-0.8365764592283089,Anular
799.4338148611461,899.4209620234768,1203.350527182617,808958.0669272366,31366.77935632732,788.941492174181,74,6.686603747651787,-1.3549237863339165,Anular
696.4623626713812,784.78061804598,1047.4772747155907,615880.6184606303,34264.800732911106,676.7862169993957,68,7.173786537665189,-0.5047574521733373,Anular
701.5706515916672,804.6449922832361,1067.5462251262215,647453.563606489,48268.19424115866,686.2485166430345,83,6.5855158869663555,-0.8657131241745747,Anular
626.9556708026948,604.0982911120292,868.9019024102727,364934.74532447394,29972.757621547808,520.3565648596696,75,7.307576124572719,-2.5213002070036055,Anular
688.8888439803372,652.8327284911267,949.0829314394687,426190.5713891691,33704.031629415585,572.6676786877914,78,6.906067533575417,-1.9294048685583252,Anular
712.6160314518546,774.1439098990942,1052.1978908532594,599298.7932338568,34537.519380683305,658.9138858958066,78,6.645860352653002,-1.2069896495357495,Anular
625.2980242656422,700.7933242339769,939.2065281083937,491111.28329090786,31210.810792370085,595.7037087886764,72,6.698634680412685,-1.3669832712894643,Anular
624.5848146276699,607.8323032706402,871.5310089507844,369460.1088992915,33130.342255257885,538.1267898356009,76,6.751666978980273,-0.555419111392995,Anular
803.1886269935644,736.7133273147923,1089.8892132574938,542746.5266432323,44196.25285429844,647.2532318885958,86,6.9741876091467745,-1.312065765569263,Anular
639.903356625147,622.6908665487177,892.87189512456,387743.91528319294,38912.76123056859,544.1405448704967,78,6.757621309978793,-1.4384358721521557,Anular
575.7131952814301,545.6579591473684,792.6380624133838,297742.6083808712,28453.14765978903,485.03632103975303,80,7.197529314764541,-1.4859833087896228,Anular
670.38970834788,648.128480743161,932.4660254449991,420070.527550438,25759.80017979401,585.9712173151831,75,6.741858092488581,-3.445424056054101,Anular
620.4342635500693,654.3749444746078,901.7456644437297,428206.5679561461,32331.619640521956,553.9911114457832,78,6.88720277717009,-1.0152101352805718,Anular
695.2067766354589,766.9919081280545,1035.1758543425262,588276.587133914,39056.72804902831,644.8952811228429,74,6.6267285398282,-2.5260317364435494,Anular
668.1963055925991,665.0140304988671,942.724754935366,442243.6607603481,37093.83883771543,595.5391142189317,83,6.713091760739294,-4.2405637529612425,Anular
575.622690456818,636.5897024786749,858.247010522398,405246.44930188777,33326.803919080405,534.60364214086,71,6.56264405903881,-0.690529780356217,Anular
577.001031160036,620.1234417810198,847.0427471568833,384553.0830463378,27994.69783005966,528.3824176550612,79,6.984470505084786,-0.5533093818297043,Anular
689.7449363326382,744.6051273222923,1014.9802327292696,554436.7956346471,32352.43853477197,627.9753959175985,72,6.581388959178103,-3.56721251504438,Anular
466.3208784712578,520.1810065009249,698.6010601355545,270588.2795243153,21469.692295706795,443.4848279846468,81,6.6059752722306575,-1.8450861894201298,Anular
603.3251294317844,627.9260187643393,870.7998029657061,394291.0850412334,35930.3164558942,544.77259995206,81,6.999778004089759,-1.4700091641837425,Anular
604.2819876155336,672.7473974655366,904.2929731858102,452589.0607966526,33388.35664207677,554.208445919949,74,6.681584230146065,-0.8541142249756948,Anular
596.4625135744782,633.8749565623442,870.3820946322935,401797.4605569138,30298.68524609349,562.328498921774,78,6.7406635044460055,-0.27676834361802155,Anular
477.8959039892339,475.27603638956674,673.9968885802543,225887.31076617676,25265.27775066334,415.6451467408065,83,6.6481944028985875,-1.0381945482230928,Anular
568.5950955358745,644.825827984626,859.7096783818997,415800.34843605856,34556.004067693626,535.09138614705,80,6.851725266823109,-5.188056136379354,Anular
595.2695136728794,627.0289785872363,864.587262164149,393165.33998815285,31791.820912075047,530.0393558983396,77,6.650123972405362,-0.5406749582758013,Anular
544.1974886526928,593.4487220261869,805.190842179922,352181.3856745145,31323.41874636983,506.12756877548856,86,6.828604155057012,-2.0769095188399342,Anular
624.2753610062207,722.6865345137763,954.9845828739745,522275.82716753165,36613.4223706836,592.6434317181327,78,6.477898879757317,-1.7116484831189707,Anular
664.7030021444525,607.824829074867,900.711443193512,369451.0228398913,30717.667116440105,542.5786464879221,77,6.998601008836268,-1.867424937211708,Anular
335.2039780108102,267.77588487461674,429.02870695870195,71703.92452038401,11113.191418694514,230.99686527883688,60,6.557773204772676,-0.8833036390537841,Índice
326.2609881456707,260.5147462931276,417.5094794396433,67867.93303617265,11513.191752066334,228.06395587761762,61,6.512568738956111,-2.140665461619753,Índice
371.07626160260355,274.94221151842873,461.83418193071003,75593.2196746444,13315.137500506988,248.91189605188464,59,6.8452380066533145,-3.7505953531597043,Índice
343.70918596000314,219.57828263488133,407.8610384900375,48214.622204883824,9852.13846047217,189.59683158601166,56,6.76902627693535,-0.5424106570083542,Índice
347.9587998246902,213.7285293174594,408.35671981693037,45679.8842442041,10151.7788553269,180.1129293994226,62,6.830122687048581,-2.861658332864631,Índice
363.57904640051873,213.18593043018143,421.4711898990164,45448.240933382156,12181.123492888768,182.0541926794049,55,6.995692761466085,-1.3959083679260502,Índice
377.0536629688099,258.52055839754433,457.16774150455416,66832.87911417814,15933.297484004359,217.53020889340863,65,6.835441130543943,-0.6984881350693629,Índice
350.3758587392979,244.3566593088953,427.169075818819,59710.176948603534,13034.134237534248,206.52654812742287,63,6.7182312503790484,-2.495105830514648,Índice
348.4444007262531,235.11601069951416,420.3487110539673,55279.53848725405,12416.61591160786,197.63802252808097,58,6.7291575591723225,-1.107062043725018,Índice
371.0818452935139,228.2082991589307,435.6383404975408,52079.02780501202,13945.58388798085,192.64595231630724,62,6.841748498430668,-0.7883328477895157,Índice
357.3632295382415,245.9766394023712,433.8352048389875,60504.50713168416,12312.105480751334,208.73260883611965,59,6.703027746017261,-2.323085669159814,Índice
322.72752829940777,205.83632869937952,382.7814673344102,42368.59421243901,10409.317018942298,169.22936726695406,55,6.732502992881039,-1.2182746089320742,Índice
357.6876909027388,210.6951233618718,415.13000280852685,44392.43500847437,12484.014040011767,171.6227468470594,64,6.821052036181468,-0.9086314433772328,Índice
355.18516350391815,237.81276840924068,427.4475560718207,56554.91281846714,15294.447825970867,203.51901911307374,66,6.774688893039233,-0.5190849815832155,Índice
361.4952140885649,221.48843604415924,423.931320099497,49057.12730128762,12398.89518537526,189.1573495704877,59,7.057915845483556,-0.6779168729063922,Índice
395.35740421814575,256.6778223898345,471.37138391813477,65883.50450678742,14394.484629331153,207.6573411900312,56,6.777871354038894,-1.0421508445706704,Índice
380.6332052903989,241.37352804029652,450.7136751955311,58261.18003861981,16556.217981066337,211.3094555261427,67,6.867123034123017,-1.5454641738092092,Índice
380.57743169345747,226.83119316068172,443.04804672302384,51452.3901906985,14469.812711193545,192.5639654808825,55,7.018260393091982,-4.828177968167571,Índice
407.7477138343534,266.5146336315778,487.1224159047865,71030.04993977414,14890.058186266775,226.16894261252767,61,6.939229241179204,-1.2818892304025857,Índice
365.4580113536653,199.57126526186804,416.3991450288997,39828.689918222895,14422.678210063346,163.4895167275814,61,6.948272011942272,-0.9220286890362457,Índice
416.21537009666355,222.05033258148836,471.7431340297941,49306.35019954959,15309.518926295383,192.7540966847238,51,6.962647980083089,-0.6415241547587881,Índice
425.67352114371045,273.29144584742255,505.85191605474796,74688.2143733747,22906.08130611234,214.56953455966033,63,6.96345423422826,-1.2414623260715025,Índice
317.3789227686537,281.2770102523371,424.0827007958286,79116.75649649336,10540.033284483085,244.0024291283477,57,6.576131203293,-2.213556295534732,Índice
343.00728433594355,281.84064851675726,443.9461096392951,79434.1511563463,11416.643900252897,244.90125637560638,56,6.584817299900292,-1.7770944475943427,Índice
424.3399487730666,315.4372276773099,528.7391008138851,99500.64460474704,15995.028834637276,274.99458851318394,61,6.733530371391347,-0.44484625160833074,Índice
344.981204664816,236.35519589431718,418.18155171914117,55863.778626241045,12707.471320978262,201.56431422056772,68,6.832908476631384,-0.6240349310332585,Índice
374.15220951245794,254.7314456427335,452.28351321253274,64888.10939923689,13768.484410760075,205.6612691277978,59,7.061718754002191,-1.0405801020031709,Índice
349.3324809613871,201.46409831153642,403.26289832207254,40587.78290848041,11660.184603744343,172.12718431361964,62,6.951844960202688,-1.5778902975222908,Índice
368.3564584035111,225.74586858595907,432.0274037965725,50961.197183629105,13258.973790336217,192.69252030455755,62,6.953372397882711,-0.7359176349781922,Índice
412.3860678444853,241.65520559810878,477.97437938125995,58397.23839266422,11740.323378814608,208.93755332712587,67,6.9357945280448625,-0.8636090178365041,Índice
377.72672771502073,253.91730850914232,455.1389682183062,64473.99956052695,14746.942587138796,219.38999868122553,63,6.807918882059153,-1.240624196202031,Índice
369.69591665203353,265.3335542243846,455.0571016768464,70401.89499734444,15295.962480457254,221.04040469628222,61,6.959371262354129,-1.4779207445793476,Índice
392.112478237542,260.2353496722774,470.610914459747,67722.43721905247,13326.512579096721,224.76446018348517,54,6.814712764515937,-2.2467364540157657,Índice
395.5394824309293,266.50153925640274,476.942923826069,71023.07042603198,13562.854926990029,233.28844839638012,58,6.852269177223474,-1.9426467301319834,Índice
362.02259260675623,251.96241086181956,441.0730257508589,63485.056487300375,14872.974922439163,209.06267281018705,64,6.76847761728321,-0.951897590292391,Índice
369.9429821509031,270.09659775142245,458.0501961134796,72952.1721168937,16903.704613134763,221.51882498808072,59,6.737717497817844,-1.1338428630193718,Índice
388.2023925196155,290.4202248650493,484.81440218770285,84343.90701066579,18928.469714608953,232.57479889934552,63,6.773991544021589,-1.3070555227426477,Índice
378.10737083381446,242.96837192804696,449.4427812705701,59033.629757365765,12014.837121624027,205.86420052580124,57,6.819369885639318,-1.6075217925038612,Índice
432.1419943654942,280.3794937618985,515.1304337897008,78612.66052217848,15739.185818639711,250.23040685611943,59,6.883577329885541,-1.4289527330780023,Índice
313.4461870327139,221.91431757999283,384.05009635767703,49245.96434699391,12618.297963659104,187.01149013451774,60,6.87005432406804,-0.608935599747155,Índice
357.6416580920547,217.47230554362872,418.57109226664886,47294.20367846141,13719.17346547768,184.59634247413032,63,6.874107426642942,-1.0416518267797383,Índice
402.30768890469494,282.231054693511,491.4324417305479,79654.36823341159,14803.617875719701,233.4018914660117,62,6.76387840713945,-1.217910729216239,Índice
314.7711987591888,235.18280941108478,392.9272978691952,55310.95384249062,10694.795670076554,206.20504001214007,58,6.538359083217328,-1.5663868989444651,Índice
425.2568825346792,280.9730022953866,509.695246360016,78945.82801888333,13208.451864693821,246.87083407089958,59,6.7514643054482235,-2.494760766383213,Índice
391.0742630737779,266.9135166340756,473.47851545837585,71242.82536196895,14418.008520539373,236.07899608290572,62,6.751396864932147,-1.1352929535623193,Índice
364.13252827821503,240.90517633856211,436.609438900488,58035.303986713705,11674.67346701819,202.8971673874512,59,6.77460638186601,-1.344007436747277,Índice
413.2449575430731,272.90874562199184,495.22780452206564,74479.18343696906,13971.273430237581,238.3890632917284,59,6.744607444035701,-0.8024042616754974,Índice
392.7590019248667,251.61769827064168,466.44517327981123,63311.46608301567,15230.702365194244,213.72531931240087,56,6.758542148860883,-0.6776815827822122,Índice
390.3394735939695,227.22378914028005,451.6586708974861,51630.65035126645,14755.444831138546,197.25241488582157,65,6.792359989690141,-2.1646318438064345,Índice
367.47662098129763,210.92679849499228,423.70884023251074,44490.11432334708,12089.093726297957,178.64014524627007,63,6.912240806704273,-1.4467660773350322,Índice
383.86557642200796,227.62768850889034,446.2814642551278,51814.364575900414,14704.019247899269,187.30178522840112,62,6.992461835152685,-0.9406467966254232,Índice
432.6805782000591,281.8164445685071,516.3651723158445,79420.50842923443,17351.50121368184,241.8676130405685,66,6.930985435025754,-1.1529845132498544,Índice
377.91293100842984,282.18519325956674,471.64252004915903,79628.48329493904,15677.924425266543,225.0268322983824,59,6.55909195692136,-0.6831059870554406,Índice
419.044326537701,291.76029032150973,510.6096499400763,85124.06700849163,15927.88803209932,245.903687310405,54,6.731992012817763,-2.603665919323583,Índice
448.4596388162357,278.655645134957,527.9820226227096,77648.9685655791,16363.092818155183,234.35281416771807,60,6.9948699289156675,-2.790935192630931,Índice
402.05369305521197,270.8787871340645,484.7911812508108,73375.31731922182,19655.865789399235,221.04387259226417,63,6.835945653748443,-0.7789135862179893,Índice
384.26757986964157,230.72956768332625,448.21613797609524,53236.13340333463,13480.539139303388,195.85085269657912,57,6.945901551083868,-1.2394212930610546,Índice
368.58629468410084,249.35982021499728,444.9731207722426,62180.31993765577,15798.470361404236,199.706769943105,66,7.025229736041078,-1.3874287767378548,Índice
410.76241382936183,249.04998149371932,480.3661664781834,62025.893282021934,13027.019418822183,216.2738933119451,59,6.88472741279317,-2.8848767959150807,Índice
417.2228887987982,290.13969391984614,508.1889224742273,84181.041987902,19586.33028718156,242.5019759141589,68,6.685723864467566,-1.2815605588272685,Índice
332.12839328438486,205.80239852296467,390.7222758731223,42354.627237805165,9358.674572384934,181.76865234681873,54,6.851804061953398,-1.7858737889816851,Índice
343.11287593543324,213.080909684423,403.89345093059535,45403.47407194123,13737.44915132258,180.87575560898858,59,6.707518103841794,-1.413457765957622,Índice
345.5972409888434,213.01328794119206,405.9705824547118,45374.6608395172,13709.391547921019,178.677688689654,61,6.823231233309982,-0.873829434618579,Índice
341.4594160248235,246.0953517441496,420.9007661457631,60562.92215007672,13108.580812555923,203.05891260692565,57,6.628883910322872,-1.7947488784433534,Índice
325.48094109882743,206.42101463696022,385.4185754505491,42609.63528375214,10430.185485010523,175.9493876680707,60,6.756350844686697,-2.200972375653063,Índice
451.14459189170543,279.0825353155397,530.4889294898462,77887.06151814945,22249.245355104336,230.76227718194684,65,6.825353874197664,-1.086197239138358,Índice
371.79066623506327,246.60453230158495,446.14133954521145,60813.79535168346,14071.071038008522,210.90535280920494,62,6.674575020690526,-2.114594994046231,Índice
334.51867924198484,232.48730945018423,407.3734107881706,54050.34905538573,14153.306859073014,198.35815010782156,57,6.617924531147329,-1.0591158891685466,Índice
404.6350412556921,283.605739230217,494.1272426575097,80432.21532431786,13341.527443186144,239.50918028173692,58,6.685553969795372,-1.1965498127190544,Índice
317.1042358341703,192.0543735516996,370.7289829299955,36884.882400335766,11436.65363364653,165.32104354639134,60,6.698159276993774,-2.8061290456107226,Índice
335.9866350762987,215.60152381181604,399.21302085461963,46484.017069977075,10562.578577297612,181.00832703395918,55,6.706535752714704,-2.4463135419215156,Índice
338.44070098520984,192.70367781173388,389.4570778988728,37134.70744216854,11120.24456994712,168.78921473381916,61,6.811147156975375,-1.0284915478049932,Índice
380.0387899415661,288.3568324907062,477.0525596874239,83149.66284407319,15421.871731278701,258.4196935615029,60,6.876192795318632,-5.733400429928571,Índice
372.6958871303044,269.3978651122564,459.8667568012349,72575.2097270415,11380.669309732188,235.21045742920722,63,6.625774147855285,-1.3210654312954448,Índice
360.7324192234498,268.0040054166048,449.3929518785829,71826.14691934355,11636.723754697967,234.29433931220518,67,6.527624211296099,-1.6805076052652417,Índice
372.5152022217625,252.55012978144083,450.05460106407435,63781.56805262261,10729.722119540953,220.9977833110582,60,6.727771517848836,-0.9881123447864527,Índice
461.3121947775831,318.096618730815,560.0277008778452,101185.4588479775,18025.24463846969,269.88476180932724,59,7.014167322953888,-2.1316030150409597,Índice
329.6928248657822,216.9736870105474,394.68334094933664,47077.58085495098,10549.293894210117,187.6649184818308,55,6.695950351732544,-0.8290001635679267,Índice
349.2218545277966,238.64416700643895,422.9739260593147,56951.038446197126,10745.512273473249,210.24258176574313,61,6.821770211468779,-0.7923658445931658,Índice
394.45722600860006,253.79636478194925,469.0512743047736,64412.594776532256,14164.884693923914,210.99317925709204,62,6.780616262261292,-2.0153161169465257,Índice
411.9403778014973,269.854996537482,492.4597384756289,72821.71915624442,13459.152850685,227.98365358250004,55,6.836101651434612,-1.1484364877820337,Índice
388.5623279155968,263.1870892671491,469.3060053228617,69267.44395691429,16058.531105554277,221.7275591205614,65,6.736470072301819,-0.5371741234715566,Índice
346.4542841082297,229.2118137396062,415.41380156988754,52538.055557799926,12810.657097920086,201.53119921511382,55,6.816205832587324,-1.0513326944268533,Índice
384.162619747936,270.816194439894,470.02375427472145,73341.41117090647,17462.651768706513,238.71259189473912,62,6.71126116400862,-1.7167550666562863,Índice
353.45909801507423,216.1315807116796,414.3020566574092,46712.86018092927,12994.547885495878,187.81127035958434,63,6.954624293544422,-0.8788527907565857,Índice
325.9230146233579,211.48477690042253,388.52493140312,44725.81086062149,12341.963692461915,176.30855221972968,63,6.809044488729277,-1.528260929175802,Índice
381.5315948364133,301.36126894311195,486.1943770524497,90818.61441900267,16478.68464549969,256.0334342170759,62,6.561319317076758,-1.1742668445290045,Índice
313.3096721542547,205.72530092325107,374.8144208876825,42322.89943996221,11274.698064940347,177.87509939573198,62,6.781486866330109,-2.3705026392072375,Índice
376.8537677139785,245.1734300544072,449.58733639290205,60110.0108046433,14257.787575901188,206.105220061746,59,6.74431344917995,-0.747522843765908,Índice
335.93542171741484,243.06054942724236,414.6456779617149,59078.430687872926,14604.076369564675,205.21859259523006,64,6.692394565500889,-0.8500121370906428,Índice
402.38115657485304,225.96370402566683,461.48693448841607,51059.595536999164,13947.963594569424,175.36034522350118,54,6.915066686620448,-1.0279769637578373,Índice
296.5032263497844,194.4325791793896,354.56761143987933,37804.0278463496,8118.327501779999,168.90053460753086,53,6.719852731746816,-1.3238222686867982,Índice
317.5943067987843,217.71707513883587,385.05437085950587,47400.7248070095,11029.778474983052,190.46324469655102,57,6.946948465592733,-3.234755036484989,Índice
384.2180077482195,262.0970027654233,465.10032932328625,68694.83885861831,13164.466090188806,228.90338713184673,53,6.914742811811882,-0.8129804885656459,Índice
392.291187228478,237.69907758335742,458.68641473353847,56500.85148397897,14630.528181969124,201.8175530373473,66,6.787667987368957,-0.9117960278649916,Índice
283.8700990381627,165.89696594518688,328.79178280144833,27521.803309818493,6215.444666147919,138.8735324287469,59,6.727881333558381,-1.297225506031318,Índice
344.6303731483941,199.39742410629492,398.15754022324745,39759.33274022565,12451.994314583368,167.78239124610857,61,6.99788753728145,-1.8854796808201706,Índice
329.8221073274319,214.4827247705416,393.4278354500402,46002.83922499591,12320.556490944064,183.5046163816369,58,6.697891114888287,-0.5706634364879379,Índice
313.6727268823992,229.82583244367422,388.85793401738374,52819.91325842782,12302.543161985015,194.05208850453667,64,6.636717791367318,-0.7575173344967581,Índice
323.4246765683488,197.57938279225212,379.000176672661,39037.612504567296,10466.795475736484,167.46983755576753,70,6.773202707677707,-0.7023108505037716,Índice
300.1041655383525,184.61284362564135,352.34132911853567,34081.902031545505,12349.908231375668,153.36635474093393,61,6.8642647893886135,-0.9653112944157157,Índice
327.53037120535356,199.43609873528013,383.47216527495857,39774.757478748405,10702.352405276404,167.6906015078194,60,6.79727359903608,-1.4839865982339653,Índice
411.4191175200354,771.1762319552597,858.9518669288628,594712.7807327126,29126.247347989996,332.69903333067936,59,7.1241847567086225,-53.839903804816096,Medio
330.32558492144267,232.79432311202817,404.11407910004897,54193.19687318737,13265.52674155808,207.6857846549094,59,6.76548071558904,-1.6233677699457825,Medio
320.58493269212886,227.72928068983973,393.23698243264056,51860.625283511814,12203.177996907225,185.64504026144263,58,6.868308057146832,-2.248205863584567,Medio
338.7265317187348,223.67905897453696,405.9162286900309,50032.32142373438,12874.22909092731,188.31467830494154,54,6.790003544367789,-1.060251604485278,Medio
296.1756220450389,189.29570867188136,351.50087398946175,35832.86532158978,10752.633808787716,154.5666467136282,50,6.763450618601674,-0.8005866127254623,Medio
330.31740556362934,205.45988076212586,389.00302186625004,42213.76260278698,10797.999089241772,170.19822425009815,55,6.73945190887434,-0.9376079474460245,Medio
336.0492648469761,203.9865662491994,393.1152853989935,41610.51921013901,11036.97985054178,174.11661488221216,52,6.709692415885369,-1.6960111746665318,Medio
297.0947428810494,153.3285669183616,334.3275873762069,23509.649433238486,9517.33202961467,133.67780129493877,59,6.8271185355235895,-0.6424765682774161,Medio
343.18663089335234,204.9271147704195,399.71513105217684,41995.122368128694,10892.15637156886,175.4482270835102,53,6.760749526237898,-0.8712746225242594,Medio
366.33744284619416,231.72821466910398,433.47559043713056,53697.965473730335,15966.287973490591,192.8607275102191,58,6.831060267941703,-0.8156690216794495,Medio
362.39340139190523,218.98780809781994,423.42016658147264,47955.66009548761,14673.928870727726,179.27342972750105,58,6.855642617955711,-1.2654046408143984,Medio
328.5303164281674,202.4684176487357,385.90883503435714,40993.46014518288,13135.84944535619,167.25354269737866,52,6.944660970194685,-1.2168240146942837,Medio
386.0727614869625,223.4328938803948,446.0655055369523,49922.25806776777,13239.808260010364,183.15870500527603,52,6.802875890052539,-1.0219526868415254,Medio
475.6395406298381,238.76714921914424,532.205528115596,57009.751546237094,18269.456869909587,194.5489929209995,59,6.903317274566405,-1.3114691051638503,Medio
352.84524316308057,189.8191065681367,400.6632736365276,36031.293218325634,13984.04761551535,158.66274830840592,56,6.845292042909261,-1.101671196547233,Medio
321.5673192611742,144.0154078902909,352.34355184482206,20740.437709806865,9870.349184764764,116.47827370571298,52,6.912567201063144,-2.9482897263201746,Medio
288.0122345966591,162.1884524004157,330.53916767820857,26305.094092041913,9628.08704883533,125.33229093743037,58,6.766128040352001,-1.6710968015617955,Medio
310.25077257263627,157.43540394003116,347.91011525346386,24785.90641376078,12604.449334317967,130.1255161026118,60,6.926275928998589,-0.6784823998459554,Medio
414.56786993654185,208.60953877130353,464.0953118165466,43517.93966637599,16195.171485120663,171.9779374186056,51,6.984929462623823,-0.701513534940843,Medio
329.1020709876962,179.8749982769341,375.0509140550354,32355.015005127043,13810.328826444793,147.38851208163615,59,6.891228577072989,-2.2725474957142473,Medio
304.462353453556,207.75965209475228,368.59381127334547,43164.07303853251,10936.871269924028,176.89174106945842,54,6.6701798295427155,-1.1259799400067914,Medio
315.5535706838926,199.0953828125367,373.1126203020005,39638.971457270534,10972.171643676704,177.72136315035385,56,6.814899509787171,-1.3798331430307222,Medio
300.5508599092409,202.83646748175056,362.59268047308876,41142.63254047526,10827.34218155231,170.50915100107974,49,6.636487138716139,-1.1040819254472216,Medio
335.6213425128557,220.96947711843353,401.8322975671885,48827.50981799392,13010.759863556526,179.9850719448574,53,6.734052125634644,-1.1250896243352715,Medio
343.5788885661515,220.7306615446409,408.3729638630437,48722.024945934805,15813.504855657842,181.74756490291,55,6.724460854856829,-1.4265651963107826,Medio
411.73171550846126,221.55335156642562,467.55629943981785,49085.88759031619,15087.34502984352,181.48429581518033,54,6.870308712380728,-1.340964691897741,Medio
366.64406118885034,254.3888744623431,446.2528062155701,64713.69945021776,20611.432303481997,195.44960173586966,62,6.834544428683326,-1.172922907789809,Medio
378.6929297170415,240.3671924910054,448.5361994796898,57776.38722600804,16084.321392451042,189.8472243489488,55,6.892896875151004,-1.1477251175124594,Medio
361.2247588298674,237.18381115230613,431.3557641757099,56256.16027273282,13614.743656237279,191.82176382178687,47,7.011547445181259,-1.583358540420193,Medio
371.45505351271754,210.14022486442556,426.77601957725693,44158.91410607134,13098.296210718447,178.6566739557564,47,6.833661989173566,-1.1090242122914595,Medio
347.1447126151182,215.13733555673096,408.40362957138683,46284.07315044946,13626.009158596764,177.97889648016596,53,6.77291206606426,-1.5821076129216776,Medio
409.1328141127236,241.5314857853148,475.10748069195665,58337.45862566172,16716.3058126345,198.9679492888458,57,6.852051963334145,-1.5438332223622162,Medio
423.0134906274006,268.6270803942394,500.59370450638943,72160.50832113315,21548.87544879,221.8717514396977,49,6.981157411528747,-1.6249007421575994,Medio
409.1848666269677,295.33448688689475,504.6332472412758,87222.45914474541,19258.995939098197,248.6403009895853,59,6.7781309322973,-2.20385962098238,Medio
326.4095540793901,207.87136283326151,386.9802326740523,43210.50348615746,13464.936486402252,171.42292319652262,57,6.803543173881551,-0.6950795021651894,Medio
395.01663267730635,288.7463727802054,489.2980767236301,83374.46779372533,22080.24826452938,237.72309431471388,55,6.808942734033194,-0.9875635082891491,Medio
331.1127385339966,196.08569063058823,384.81845549500025,38449.59807007475,13549.23870553915,168.30069255393067,55,6.765982030862501,-0.9848046759459521,Medio
369.284452437196,197.90732405764277,418.97292958793486,39167.30891565683,13013.4069614768,154.16067723849176,48,6.933492245015776,-1.2245992346025825,Medio
376.48824097690607,239.57683413704729,446.25156027628105,57397.059455130264,17832.24218252454,195.96670292088177,54,6.78059433406324,-1.8774970926726342,Medio
397.5719339454161,236.5293417124282,462.6116861386155,55946.129490914616,17224.004338320545,189.55600663242768,49,6.92856531123083,-1.3518399238468406,Medio
271.99094093791473,205.11587515381018,340.66346178069296,42072.522240113445,7292.251267479111,180.49654926152903,50,6.337949205621741,-1.6381362645147128,Medio
309.1372668383558,226.99050590969674,383.5238447885983,51524.689773140075,11270.660093318033,197.50171884637268,50,6.818264537127569,-0.9573985994915104,Medio
247.54868119135187,184.6006361894589,308.8004929418517,34077.394881552966,8962.721056107808,153.75226487530526,53,6.771134500933783,-2.1198140377666435,Medio
263.04770832657283,179.9650812692804,318.71857073619094,32387.4304762587,7836.647221054416,149.71935506513623,57,6.717062480793834,-1.4179275853713276,Medio
323.25292489132124,236.31550918211056,400.421619459782,55845.01988000018,10362.797245373895,200.30249478263323,51,6.578937002386819,-2.568586580051562,Medio
301.9862925309588,183.90980537212886,353.57960544778047,33822.81651201432,7852.673216593456,155.1035017891753,54,6.746957726649004,-1.1975022772318293,Medio
276.5928428970391,176.5325259106986,328.1270081024689,31163.73270441147,9996.358038112934,144.931883249101,48,6.5840215606217285,-2.2330242462744185,Medio
250.74395254133842,128.96825318226394,281.966913067717,16632.81032888453,6117.641717206598,111.9432374831735,52,6.823479020937529,-0.5024330764007823,Medio
283.0817062823724,184.2522713127742,337.76345556566,33948.89948391616,12825.968192268792,147.4115983756743,52,6.78198222237642,-0.9907892991850733,Medio
250.7408235390556,134.9387663406611,284.7445017038666,18208.470661539533,7028.160745350524,110.65346867004803,52,6.766962102926348,-2.1054618963334155,Medio
272.36951309592143,159.1219664891743,315.44405507711065,25319.80021938191,9467.236983255725,130.8092876564075,54,6.770416176007933,-1.2298786860830933,Medio
270.4174437929699,150.27266354163092,309.3662349310608,22581.87340789621,10046.130542286732,127.61606171958056,59,6.788509658813554,-2.0170240888629065,Medio
261.91826404534714,167.7964100407485,311.057570657091,28155.635222563,11934.311801182102,139.43872526750275,55,6.9081635835743525,-0.9542463663787398,Medio
256.84359388210595,151.4697260289003,298.1806660760324,22943.077903270118,7952.866220070791,133.65880377062965,53,6.547866094541209,-1.4255711204470372,Medio
293.5894986974042,162.01878757322908,335.32802041000446,26250.087526699124,8187.027199641461,140.50071664536483,51,6.704426598887485,-1.2601565925003118,Medio
274.19556695865725,158.75488949796198,316.83800889301386,25203.114939510117,8895.152169992887,135.771819484788,59,6.800689762070533,-1.261960877445828,Medio
270.541837575169,150.14250450348828,309.4117928216848,22542.771658579997,8211.330946551847,129.90482965533627,60,6.792609013804405,-1.1575872727830352,Medio
282.5318282299914,157.0943947306062,323.2690563891894,24678.648855775515,9575.275015760551,130.05749451871063,49,6.895699694874585,-0.9051814224996706,Medio
299.34757503803667,169.81085496245458,344.15795377156815,28835.726463079787,10655.102493174662,142.0171019611047,58,6.69773262518101,-1.547665039082472,Medio
264.4592015469184,149.45236019633873,303.7674723387772,22336.007968256177,9372.9066940038,123.11965023650998,56,6.823978417225188,-0.9528208187902044,Medio
346.12965020582266,174.25156986329606,387.51689556899123,30363.609599823143,12226.966138245356,140.32007859554747,58,6.9018572718867714,-1.5254254203316104,Medio
305.13656707687113,134.242463964801,333.36071109055257,18021.039131340898,10010.774867591299,110.44691189448146,54,7.036540496108863,-1.0653053969031372,Medio
250.4007849777633,130.45360264926092,282.34499386681404,17018.14244417125,7752.37670216173,111.01044877768388,58,6.652431694476053,-2.7211564663552603,Medio
261.0545328621987,144.6422361463209,298.4473916878966,20921.376477408063,10097.266969385513,123.09389992594272,56,6.7964969893907705,-0.9245044162976566,Medio
264.61382540093786,156.70363169314584,307.5329328366948,24556.028185821102,9876.497988949493,130.0463713580082,59,6.8324286053785155,-1.076537713794768,Medio
325.56575524728913,181.89561898681802,372.9330733473975,33086.01620659768,10703.478370830664,157.71629920376856,52,6.704200273645947,-1.7018329887054044,Medio
250.443823297161,155.09666564179784,294.57950424444533,24054.975693203633,9102.98385099894,117.8835464631791,55,6.783511249109623,-0.8409854310015535,Medio
287.64092946174776,166.63870218514435,332.4240685744152,27768.457065949235,11052.077822813117,136.44199508715022,50,6.714726083256377,-1.0469994061132293,Medio
359.1933752812579,157.91074229325753,392.37186873876425,24935.802531607595,10357.797148013824,128.48202983627655,57,6.953510990691458,-1.063530036710894,Medio
435.9507422097605,709.5486212304082,817.5535700733717,503459.24588997324,22675.609125354007,311.2657796717631,55,7.130172190563713,-49.92781236666826,Medio
354.9916090136286,259.01671612584425,439.4413518351466,67089.65923261618,12396.900130422604,220.79321610499014,59,6.519564360219359,-2.915171445699152,Medio
319.9362753038264,201.88409708346592,378.3072942866579,40757.188655206286,10662.74496892121,175.7894350648028,53,6.618503235151425,-2.590952610470123,Medio
305.85452566975056,187.3080968071117,358.65207932224575,35084.32312950233,10238.44972958384,166.7829853999609,63,6.7880343680399164,-1.5540001682012443,Medio
316.0653069169287,173.5147542978454,360.5615733762183,30107.36995904166,10664.579454389346,148.251275201689,56,6.733836479273715,-2.4892581898408825,Medio
333.8931942439073,146.98751421064588,364.81501407730525,21605.329333824826,10268.4818677526,119.39863040305809,51,6.898134500732736,-1.6994915461448272,Medio
267.90937979534453,153.22204054728692,308.6299231957275,23476.99370947444,9640.524394630098,123.66300126919586,55,6.841571496313669,-0.6888189281598646,Medio
394.96281406560814,241.0324633259546,462.7010621033861,58096.64837697765,14738.643466688636,194.39558997459636,56,6.862181836571129,-0.9981964708066848,Medio
265.0013600762237,172.72979483323974,316.324679507277,29835.582023133094,8288.568745640225,147.5903491082004,49,6.770466934171848,-1.1800100257339838,Medio
353.72089112213075,196.87478346591604,404.8186620957408,38759.68036475133,13393.480739851697,155.17423193415632,54,6.763510897433791,-1.7238094085960654,Medio
325.64848304161455,193.97365661822766,379.0418367003184,37625.7794618461,10793.519777594696,157.78886756625187,57,6.807677882110315,-1.4972629482943807,Medio
260.25827155756394,148.83151482904407,299.80858513464653,22150.819806307965,7370.675404657792,127.03753893469732,54,6.683583000598169,-1.1573192091458957,Medio
314.153634787661,152.9050226201923,349.38868354996936,23379.94594248152,10740.839083685583,124.7045216376686,52,6.903208137985186,-0.4041523289323046,Medio
309.9529133892566,148.7731558554741,343.80846473245145,22133.45190319719,8173.24052948988,122.14255600159674,53,6.808154516436154,-1.0218580794969017,Medio
295.311495677551,142.67187784685882,327.9697306271743,20355.264728349008,11003.369331037578,116.9581507392695,59,6.858059724418199,-0.19172211832756625,Medio
332.6569913045366,161.85050980865933,369.9408890473035,26195.587525322924,11128.807046272046,137.9133773732442,59,6.880154545347471,-2.120773233439097,Medio
311.44056367144077,143.8201829754232,343.04441364212454,20684.245031084207,11137.245577632522,119.09904347428208,53,6.892190572750322,-1.2055962916766696,Medio
360.06066823447725,183.65160030155923,404.1925223241791,33727.91029332367,12380.516413045443,152.56861876492349,60,6.768940695455794,-2.0303281411247376,Medio
304.9601547125257,156.09947773494528,342.58975891204085,24367.04694912268,8740.15894161196,135.31659851563094,62,6.815613828532984,-1.6694419844090975,Medio
326.77902134740975,206.86102503896944,386.7505817357537,42791.48368017314,11704.02445646001,172.88945409119606,56,6.688689518238361,-1.5666650054794846,Medio
345.2524231776608,198.0281873429724,398.01306346951714,39215.16298234337,10388.924568394345,169.0665600202977,54,6.680237952327564,-0.984712255496546,Medio
316.6331963496156,189.968908442341,369.24892309301146,36088.186174774535,8687.450095447804,160.52481060484516,60,6.5828125115490295,-0.7725967619413948,Medio
364.5186177465176,196.43582915983953,414.0783231002868,38587.034977713665,12584.370889803919,161.97932441791235,50,6.95152748056276,-0.8494751077193733,Medio
354.809934191865,211.92158942072675,413.28059410507376,44910.76006260708,11432.428628717678,181.76550549306646,57,6.647822187142458,-1.7321544744019985,Medio
336.82284922543795,186.7197593703017,385.1154376283108,34864.26853930337,12771.24570866945,155.638090558075,54,6.796562448175148,-3.105513006312775,Medio
362.88804429313575,237.62644417325265,433.7672874495272,56466.32697042396,10553.03800033633,206.8957682991401,50,6.592456515024889,-0.4572401410556865,Medio
308.8981470982256,172.307672116334,353.7060914811435,29689.933870150064,7873.0460253327155,148.71204587956802,59,6.6923873433740635,-2.3502552851362464,Medio
291.3027413186289,176.4347313275615,340.56791028864814,31129.214418628813,9821.488913006206,154.98427930376448,51,6.726175841222831,-2.289779350697709,Medio
292.94536269213035,163.20329142921264,335.3390819098667,26635.31433332851,9578.263997510281,142.0295059152372,55,6.530984787566572,-1.6976465575847053,Medio
299.08017868059756,190.08491494764834,354.3744180528172,36132.274890654706,13246.612218368404,152.73605080763883,55,6.559683414361619,-0.8265925470280002,Medio
312.15850655077406,185.62961116318075,363.1821660717982,34458.35254059368,9236.082851617004,163.79689003520332,54,6.693151990435981,-1.394297711222201,Medio
