MAV,STD,RMS,VAR,WL,DMAV,SSC,Entropy,MeanD,Dedo
735.3985268199301,1031.0304147301736,1266.2267852734685,1063023.7160986736,49070.78386924821,838.944165161423,84,6.667315188310105,-0.9231186772248309,Anular
804.072879203487,1024.3541901004953,1302.242182486432,1049301.5067764416,32871.43704737094,882.2634969389392,75,6.558527403586867,-1.9046636839643458,Anular
756.9870084330854,1004.9369579318089,1258.1445148923515,1009898.2894172382,49708.70510498957,838.3091019757335,84,6.518883662952296,-1.4403293630088623,Anular
781.659904225231,921.0610755797796,1208.0338202308649,848353.5049481806,33919.707856112575,794.9934516937508,81,6.666566980056144,-0.5287525432253073,Anular
820.1873684164885,1015.0875446001968,1304.887194896819,1030402.7232024565,44543.001988304524,873.2651904202463,83,6.798579151990392,-0.4875076521683438,Anular
940.7914277926428,1164.7061764208681,1497.0453496863422,1356540.4773929187,56858.39653211241,1021.0054216857749,79,6.7726962640710555,-2.71216838807621,Anular
722.6257432187904,897.8504393695048,1152.5291216444475,806135.4114760128,47457.7384279805,758.4100685500704,85,6.603914244886207,-3.2338277034135676,Anular
927.364010807923,1070.0595252159003,1415.9742071231053,1145027.3875052778,54767.06507929963,946.3868181868171,83,6.805890239243529,-0.5716247731449263,Anular
891.6944835523539,988.7766081755491,1331.4646945649154,977679.1808751434,45985.37816450631,883.1655858031546,77,6.742699047685366,-1.1009983017183573,Anular
724.4431347579495,891.9676207165742,1149.0970767975655,795606.2364067863,43567.74426610756,772.4920736888981,85,6.675492096298381,-0.24882237547944466,Anular
671.2039235007237,798.9450993292619,1043.2272967906297,638313.2717422441,44421.12191432354,682.3487455676568,85,6.8956342311911305,-2.1483060706406487,Anular
680.7079893271952,783.3375653165025,1037.7770030068398,613617.7412359859,40813.5634039357,670.4660205323795,80,6.714838772142381,-4.988864639179214,Anular
802.3657953626326,953.3892142268274,1245.978591303785,908950.9938040475,51879.13614094394,801.9421719897701,80,6.852258652265263,-2.7590111998729148,Anular
605.7034108024876,752.1689712111128,965.7301813190633,565758.1612527838,34199.71530245379,643.9545726134555,80,6.686561459457878,-4.4899916326058635,Anular
651.887024237718,691.6034643263523,950.4062522088745,478315.3518682121,38547.51150924089,595.5161548514853,76,6.870961076345666,-1.3579902776705208,Anular
726.1275761842866,908.1688147975495,1162.76904545402,824770.5961707858,35531.488603716636,763.325482880847,78,6.7141882506545025,-3.921075552899232,Anular
782.054627472933,962.0855494737035,1239.8459762639654,925608.604506118,44117.87122892025,844.6401906335774,69,6.723564969656488,-2.9573345300861926,Anular
662.4716241357846,816.5893656006872,1051.3902023367407,666818.1920121328,30968.23517157622,686.7157632205086,77,6.843823163843794,-2.5371319006570965,Anular
646.6528394627308,823.4220625202553,1046.987959735127,678023.8930451112,32909.41246342367,685.305827666332,79,6.699855864125219,-0.4203559873803151,Anular
730.1664703592626,857.3819921235,1126.164710357488,735103.8804176615,37519.69217785932,731.4287776847152,73,6.760963257562479,-0.48767015350183024,Anular
692.6639963447976,1052.788558261753,1260.2171083742699,1108363.7484068605,43007.85288575064,832.4924559400512,80,6.428602031596881,-2.22100410669587,Anular
636.6879016174055,864.5208566054789,1072.9762009285125,747396.3115058711,30459.1236618504,727.8862007701765,80,6.928574599794082,-5.802032337144494,Anular
625.1794951797942,935.3671864604258,1125.0118316182036,874911.7735068931,32273.334454740583,726.66930634362,76,6.570456590628494,-3.892948452427006,Anular
559.4104650039689,767.7158025542408,949.9092703239918,589387.5534915021,28530.41704770711,629.6321101959571,85,6.448396325185324,-0.8075174754787889,Anular
572.2670018966564,774.6302221219358,963.0895609882119,600051.9810246796,31444.252342058597,618.2859384459117,81,6.589396999554193,-1.277491690401135,Anular
571.4193567889419,812.3768154391032,993.2150681378461,659956.0902629788,39839.05596312345,630.7642772371702,82,6.338585767468584,-1.1499045083716473,Anular
581.6385646557396,758.2667761871346,955.2171336472217,574968.50386923,27899.625134383004,626.3547670564785,81,6.957751004216538,-1.055709591914981,Anular
639.9603799023678,844.6371767527469,1059.6986591468512,713411.960352851,33661.2208594708,697.2307422123157,75,6.492847000461612,-0.8795143337058479,Anular
531.9534226046371,712.0788367333298,888.8367192821635,507056.26972349215,30154.91840244176,563.1060591507861,83,6.528640506568507,-2.282090546350744,Anular
662.8277670336873,811.3262335251459,1047.6597281355066,658250.2572060995,26629.803255548268,706.9341280900383,73,6.551721309802384,-0.6298145058720452,Anular
568.4405945890963,735.6264157522993,928.0860762177168,541146.2235525746,28655.184558271423,612.2759374512144,77,7.116872561403996,-4.181606696722068,Anular
611.7224610039274,788.3759292805261,997.574695655037,621536.605868933,33839.60657815781,653.4557991356439,75,6.896036178538707,-1.8883278504409082,Anular
670.2787577695162,911.041018262011,1131.0478991063676,829995.7369558819,40036.084335928696,735.7286831292358,78,6.644079662243952,-2.0434903559942135,Anular
587.3103232414043,760.2179117734163,960.6584664525975,577931.2733811337,42005.46377478798,619.0655520323623,74,6.654451069112559,0.4442433904277621,Anular
518.5295195944858,709.6222632099038,877.681110931984,503563.7564431461,36971.63621792523,547.3747922420663,78,7.2268688039119855,-0.950484296882043,Anular
715.3660222547633,872.6980170343356,1128.4282762906398,761601.8289356616,39597.82728483495,726.0019577570629,71,6.683464859265738,-0.6435256529632697,Anular
528.0687879939956,655.8392370618764,842.010540149796,430125.104869904,23518.708410308354,543.2270991780289,78,6.682976384330081,-0.8210386724925297,Anular
577.6237403089439,736.6542880847222,936.113628531335,542659.5401536089,29990.930370220103,613.4247445690535,80,6.495093472794942,0.20223525012080928,Anular
576.2233198516376,743.799166268551,940.8881517388952,553237.1997417915,25634.50866193732,611.1210874072939,74,6.5144500644896715,-0.17024814361499713,Anular
607.652735917969,765.4049914443852,977.2455034412226,585844.8009279795,33078.94245105521,645.410212426432,79,6.788585751086911,-0.4680003964618764,Anular
552.8603852736185,649.9895092233792,853.3117646589337,422486.36210044933,24769.607106296615,562.9308895150185,83,6.686025936079127,-0.4861287349749234,Anular
651.7816492718044,769.8125808779278,1008.6777126542498,592611.4096779361,35177.98022233958,658.8912700089619,83,6.799659079560639,-1.4897034324599348,Anular
619.4914537460938,763.6110766461127,983.2962613785753,583101.8763766354,31332.11196535299,637.2802291808626,84,6.709592044768629,-1.6434705350250964,Anular
631.4318327171306,809.8373817769558,1026.9093164889825,655836.5849233548,37811.774342430035,657.1737160540455,84,6.559016744489287,-0.46608738014985507,Anular
621.5004508953903,716.3189162996746,948.3541534215547,513112.78984874015,36525.33925171423,610.5344519985672,75,6.720694501513028,-0.6825548647544857,Anular
520.9504643766418,603.221820443398,797.0357275513348,363876.5646590471,26472.705521430795,496.56656829082385,75,6.724110892847128,-2.453149827930739,Anular
598.6887406859844,605.9801445403566,851.8451407393962,367211.93557715154,27216.81942255524,535.9046459016462,77,6.973090375009649,-0.7154873484980545,Anular
872.9068312243043,1030.6701261952069,1350.3887651190316,1062280.9090312438,60900.28645055467,835.8898813901018,75,6.933956915417775,-2.3601539448610334,Anular
670.091679306742,759.2061688061121,1012.628690799043,576394.0067532548,38366.02875030061,643.6944623261497,81,6.773403324934414,-0.4916253140076166,Anular
663.301278967104,795.553676191422,1035.796427094186,632905.651701686,42510.15424281506,668.6394442600472,74,6.654740087969515,-1.0285670280891386,Anular
517.5305782046977,611.4540612369999,801.0705139874455,373876.0690032209,26202.717345529043,501.5271523962416,75,6.73932407565031,-0.7985125050014569,Anular
610.5917228249192,722.2034336839615,945.7272606873544,521577.7996249042,42773.073714249695,603.4689212324618,77,6.737418536952224,-4.5935743680271885,Anular
588.9907391974056,710.9944861239987,923.2677023263813,505513.159298729,32407.722748633634,596.6015731542826,77,6.639485787101495,-0.3749677987785481,Anular
504.4342579856567,581.7498033871834,769.9913988938881,338432.8337410266,25338.078648648745,492.01795350673694,72,6.695209929451076,-1.3748475994540532,Anular
526.9404158549298,585.3482678883933,787.5905005656867,342632.59471994225,28301.487630972813,486.0129726813916,72,6.758070039702988,-1.1618604754425028,Anular
976.3993659793709,705.051436053854,1190.3134066938599,497097.52748160175,58990.02412650789,509.74730483491516,77,7.645017322047135,-1.7130491634177805,Anular
548.4804939903429,560.1096549374043,783.934740805629,313722.8255540982,31010.63219987712,481.879610057454,78,6.861747717924618,-0.904414035062103,Anular
713.0533592626282,830.9603838004888,1093.8802556461258,690495.1594458557,43098.86734112345,687.0543368754816,79,7.066792171742997,-1.4991880898335277,Anular
650.4751535498605,871.406588660975,1085.5183762297954,759349.4427617578,26706.218460548895,723.6516787457763,80,7.080686581301618,-0.7905258968201333,Anular
666.9173267792154,830.4580542685736,1065.1006058856033,689660.5798995452,27227.64450532072,707.2751045118822,81,6.602493179283555,-2.8184581436977894,Anular
846.6811926386864,989.3272887584367,1302.1664740923823,978768.4842821191,43213.53929127798,888.8067453167538,81,6.638110262115144,-5.768213997527962,Anular
808.3955444425154,916.5086767609182,1222.0849032913218,839988.1545780492,40555.13241805939,812.6138693605151,82,6.685221182599421,-3.431598271077672,Anular
787.1043584178618,962.3913495103872,1243.251813789387,926197.1096124243,51355.924015939214,845.1149123055218,72,6.74951025954811,-2.718040284924334,Anular
717.6338351229339,789.3825987531479,1066.8285750426471,623124.8872142733,36553.4189164273,712.2631249508578,77,6.773275688229546,-6.2955331466782685,Anular
684.9694198835671,793.7370792030373,1048.4281840342715,630018.5509017687,31998.5605332037,707.8290176817894,76,6.6306443512906235,-1.7149644010040697,Anular
625.3088938646007,734.3484886865405,964.5096762512941,539267.7028362061,24099.80038185096,652.2718809479745,68,6.689381641621215,-4.8433718296591115,Anular
778.7796131501273,863.4657115051024,1161.7466849029072,745573.0349450128,37497.510857851135,759.8706467689252,73,7.060454555326945,-0.656832615596084,Anular
770.825489071622,834.3953092859723,1135.861202431879,696215.5321584335,37196.01138006031,744.0240676957663,79,6.93475479854783,0.4220624455583043,Anular
863.1405759804895,903.7092658950165,1249.680795710825,816690.4372645096,51999.311906637064,766.4636037943109,70,6.911396920565946,-0.13359805097872948,Anular
896.6781991689071,890.638090043025,1262.826636317161,793236.2074354875,41195.48588010488,803.6670628076321,72,7.215594573701852,-0.6707367809281939,Anular
980.3049249602116,1043.9649384827537,1432.0825879405656,1089862.7927813,61194.578897853826,888.5621612801048,79,6.854433154837127,-2.5406575569474916,Anular
783.1214376564327,818.207772124263,1132.5825111141473,669463.9583645498,41250.778405115394,715.5955446027924,78,6.813016531691265,-1.1972186047169011,Anular
410.9887385641816,350.30099572637005,540.0208614798725,122710.78760688631,13054.176670900171,301.3372541379385,46,6.439688946141407,-1.200251200993626,Índice
448.50941308562653,392.52603787790895,596.0179393596661,154076.69041212962,13745.269522441877,329.77313310729295,46,6.28904207140735,-0.8179029415476201,Índice
401.29992083382666,314.2113216047054,509.6767417548215,98728.7546245756,15053.330587313472,253.99805757134885,47,6.417573652044942,-0.7013165415564738,Índice
424.59840395095523,330.2887082628133,537.9353450402903,109090.6308059178,14615.660520007774,290.40745407223665,51,6.479934625970923,-2.761760677484619,Índice
359.76000612110045,284.2898370141998,458.5280508690985,80820.7114295603,10090.722121170478,250.79541709084174,49,6.3573698437148956,-3.1782454949646026,Índice
355.62221758837075,289.9121685436747,458.82047372819653,84049.06546969603,10238.375981883579,248.8715531072964,45,6.372151696352129,-1.2665562261493517,Índice
387.1408119997543,315.6740929704588,499.52791842754004,99650.13297272187,11187.830822232037,266.6076215611754,41,6.442509582106983,-1.6655736419444642,Índice
378.467670522538,301.519484668326,483.89231990744526,90913.9996346529,12210.843618884928,257.8457798490277,45,6.429287796153623,-0.36083527781368796,Índice
425.4022787331366,349.94254473595583,550.0351082284645,122459.78461627646,12372.367466970194,292.6899270706334,42,6.58197186218179,-2.766168363145246,Índice
348.7894304887112,261.7124222047194,436.05900834279385,68493.39193626131,11794.623350797607,223.25752318103693,42,6.400676525870697,-1.0358389434467745,Índice
366.1375418316533,310.6338128683844,480.15629250867477,96493.36569715044,12374.71868997303,265.77608319677023,44,6.399081168856631,-0.9143420217244104,Índice
374.19892062015623,329.44917483058174,498.5595159956746,108536.7587965512,14529.90050064618,277.2862453120697,49,6.423496447775684,-0.7008554557602423,Índice
400.5835671808506,337.29095678359516,523.6720193244316,113765.18952799305,13338.523306694768,295.09258474383114,45,6.335726732005491,-1.8725690416018264,Índice
394.3384984975312,328.1085570325327,512.9893532962045,107655.22519797077,12814.50244356684,284.4950134270412,45,6.3709818679623105,-0.614013234013608,Índice
471.1102352084816,362.10283195047356,594.1913114685738,131118.46090655288,13886.256738029457,314.6403079752841,48,6.424110227585932,-0.8895417452959662,Índice
347.57982045574084,275.25840781368004,443.3722168338556,75767.19107212218,10870.49031272341,242.87239270163903,49,6.4479286827983175,-1.2050414195264225,Índice
291.41390586739885,203.7372197670511,355.5712576282018,41508.85471840768,8390.729086475869,177.49992420416925,43,6.577486658030761,-0.620666650856507,Índice
366.4124884585615,267.17687231880967,453.4772241253763,71383.48110206152,9380.823660809334,232.60097656244426,45,6.49084767658686,-0.8910227792948042,Índice
306.43931549898707,260.628173296208,401.2609246790501,67927.04471571822,10512.870443674496,222.0872809192088,50,6.586698895604994,-1.2343613503119624,Índice
377.5119522315519,299.42997610832583,481.8439422363948,89658.31059223259,14984.11135388749,242.03154909991144,48,6.460837492366746,-1.701098728293567,Índice
400.9890841945341,276.25507021183205,486.938506857812,76316.86381774426,11292.483582242077,245.30074619329287,47,6.520034308773992,-1.373659335405973,Índice
403.7814580589402,268.49566978724545,484.9014235560721,72089.92469450156,9713.584668607618,238.38212408664432,47,6.59964309418244,-1.1759235206678942,Índice
374.3608215793885,288.029094434047,472.3418084121835,82960.75924049718,14955.298192781322,241.77174798951395,49,6.340695941996206,-1.3941654123692278,Índice
376.34506634410843,239.64618273371244,446.16801976429383,57430.29289883989,8791.683470497654,210.29670476176676,45,6.48456349646729,-1.4524567129001325,Índice
374.1407112052647,244.33699678095095,446.8577399767354,59700.567995934434,8867.83580781475,216.05273735733888,47,6.519611924614005,-0.4587379275431375,Índice
402.8653981803097,276.7106919124185,488.7426071764449,76568.80701864939,14541.511067678028,230.67430516051724,45,6.508777558571235,-3.911206476849858,Índice
368.4938397234952,213.98845068914918,426.1206014058784,45791.057028342424,8807.73282564963,181.029948551765,42,6.576008841546198,-1.4095488693152056,Índice
390.2261548142101,256.98561050085016,467.2451775091729,66041.60400449466,10761.424725399233,223.6027012304824,49,6.49037988715855,-0.9151837316295426,Índice
432.69290378467633,304.0653767335206,528.8467663829597,92455.75332809784,15616.688605083084,259.7796833478415,45,6.474865677883866,-2.377487893797266,Índice
333.26582298594354,222.20582324460187,400.55154057163395,49375.427883811244,10949.529027114246,190.73446689417364,50,6.457111099419726,-3.3361601685607365,Índice
360.0007795304785,196.33693840185217,410.05945257189813,38548.19338101269,11047.687043665397,164.65604699287542,51,6.716216372021393,-1.1599734957603378,Índice
312.55195403620513,184.58183300300854,362.1824641218688,34070.453074750534,11494.222510707552,154.64788131431013,45,6.790394063656781,-3.812275902153527,Índice
343.2876269214417,224.2455951813584,410.03960998371423,50286.08695824166,11405.738747445466,193.85997220282076,54,6.612874289314094,-1.4912178760940447,Índice
436.0814177694023,279.5921951679518,518.0142840912846,78171.79559883404,17456.320307869282,230.61181010792757,51,6.561526985997564,-2.73362382199569,Índice
400.10252382847233,240.63565761509156,466.89136776102504,57905.51971584758,13114.830780307477,209.86645863918045,48,6.538908858380343,-2.593847071012356,Índice
396.87764662994,263.7012341610844,476.4978565456498,69538.34089807908,12963.02491985824,208.03585550981384,46,6.539346486143688,-2.5976586296716806,Índice
331.5441491628102,207.50292753681177,391.12528399534483,43057.46493634735,10120.304273512234,174.5001478077253,46,6.526916875111871,-3.646962895233453,Índice
396.0453065139758,235.003471468097,460.51983281266575,55226.631602056674,13323.005394769636,191.80515931921815,45,6.683835402924095,-0.9336103372595825,Índice
341.5160210145995,248.9505341819229,422.6222439473687,61976.36846946477,12795.9965390767,208.99085233266158,48,6.453009425439102,-1.2766210969469394,Índice
440.3506801709102,277.95480525942133,520.737549341111,77258.87376680285,10169.14828765081,228.92315225455005,45,6.55837866512323,-0.46563479273026465,Índice
355.5719734284461,267.1897245080045,444.77160112856006,71390.34888266333,7598.022800097277,241.92266923443665,43,6.357959823290047,-1.9976172283330014,Índice
366.937470583331,282.9254872460842,463.34645639254313,80046.83133343414,14122.208315752301,247.91620315093542,48,6.397001889523044,-2.7388740374702243,Índice
406.1479333412069,304.3033134304471,507.5003944058393,92600.50656474891,12894.90054996612,269.0444058138258,47,6.497322906739204,-1.2663676348284294,Índice
391.3560532554337,261.8223253753356,470.86143448430556,68550.9300649481,13608.68172290492,229.42061020432567,52,6.52532222559654,-1.0468928153999613,Índice
402.7413178101918,289.79182337182357,495.68892968887167,83979.30089316619,13808.48429199777,255.24764870872173,54,6.646226816180827,-0.6173979456560539,Índice
402.72188533815915,228.91113586740377,463.23344552657943,52400.30812410499,11338.34761729144,192.30861318176312,43,6.658009184097244,-1.3299867212460115,Índice
433.0366841241722,251.73002305891134,500.8879857877389,63368.00450924004,13218.750220459733,208.29332371963656,40,6.690414885434594,-1.5741417972348335,Índice
453.5233645667358,352.1722375170961,574.2026881561338,124025.28487779797,16616.593455412596,299.2173816883793,48,6.48162786048619,-2.27438982902161,Índice
338.77726065849913,221.5745371287287,404.80280117989196,49095.27550381038,9756.658153904682,182.00574776521546,41,6.509957950519599,-0.5970209487213304,Índice
375.82641010162985,210.95567766987733,430.98467312775244,44502.29794115719,10827.193860297995,174.39622536388515,43,6.613724740497849,-0.5792195645596939,Índice
378.90851949898905,224.67541175291646,440.51186907421516,50479.040646342546,14685.213574110312,189.65443864544446,47,6.653746689344937,-0.96217513992072,Índice
436.8381589893005,262.89553160441346,509.84471919078305,69114.06053756717,10723.242723995569,230.96708614202734,52,6.580930799850849,-1.1546820673510876,Índice
371.2623494671762,244.09328693501726,444.3166268086627,59581.53272674067,13572.50128725159,198.55202601309517,47,6.5046074912927025,-0.4893895823933831,Índice
385.39439990533316,247.50913832757118,458.0279653405989,61260.773555656764,13618.689590678961,205.3473225676918,47,6.619643323829974,-0.5102869447077413,Índice
370.04008240308053,241.4890899684355,441.867223449151,58316.98057378314,10827.798194554684,212.65216943680838,46,6.537305752951654,-1.341642492133663,Índice
389.72668448733344,249.82376032194747,462.92418366605915,62411.91122139786,12493.79786214451,202.4236605361558,42,6.610622819586425,-0.9690896718590227,Índice
380.3489565232973,246.97071526620897,453.4973681593576,60994.53419910286,10826.896298433872,214.83849485992218,50,6.5528583470358495,-0.1794201036993933,Índice
345.1303301302074,256.4814086191462,429.9972764367785,65782.71296726144,13042.84201235211,224.0872386909048,49,6.467434137334619,-1.57265652725233,Índice
327.12996049355064,220.85552927956516,394.70390910892786,48777.16481335686,8987.18459526734,182.67297294568996,42,6.467970850526428,-2.7990665674702786,Índice
473.4405972129932,263.3459835813771,541.7537320202222,69351.10706844293,12383.122936753578,220.3299253404627,48,6.656279538383643,-0.8302298971152432,Índice
475.61252206184344,355.14014151325057,593.5754301317393,126124.52011405163,11768.637412188946,320.6873111340834,47,6.36242004390521,-1.892453285920001,Índice
521.6608018276419,373.7208143890912,641.7142972313331,139667.24710764555,15897.526821394267,325.5698178746599,48,6.540411540695653,-1.3776931096617273,Índice
462.6075417883981,303.0287067301898,553.0209171650524,91826.3971025714,11865.680255068188,269.1983963932679,42,6.528403815675955,-0.7587376348989179,Índice
539.4842830335178,372.41162531275177,655.5407769988639,138690.41866808542,16343.834105674168,323.16898380826495,48,6.512303206806907,-2.9070067530658044,Índice
480.1663210429956,312.04887613300707,572.6553911034438,97374.50109587278,11862.69779922683,271.3162557544352,49,6.506580271090088,-1.1534848258715815,Índice
448.7962020892641,296.84556623159335,538.0848643114791,88117.29019135528,12238.223136641702,258.8376180751679,50,6.486212838956958,-1.3914575120584736,Índice
457.74568870659147,281.3880794284147,537.317752148469,79179.25124441183,10401.353680279259,238.8261595813365,49,6.5468609531037,-1.1598976616954346,Índice
550.5335121071053,318.05124514372903,635.8016534190995,101156.59453747641,16087.703598478032,263.7604785224643,53,6.653074889374173,-4.28252089861952,Índice
524.2415352360601,317.84009679908945,613.0673000576006,101022.32713325454,13160.385516402472,276.4191509508625,48,6.661924552728674,-2.347699989910361,Índice
542.2005729716826,309.975701068048,624.5529573890822,96084.93525262787,13887.303035248733,257.14345005289255,51,6.669630100370393,-2.9197947912983953,Índice
506.09451002655663,375.6647304628677,630.2821929840312,141123.98971373902,20072.51141049404,333.2067697279913,46,6.4297470783067245,-1.6524081327942377,Índice
534.2068573091021,315.47919963372397,620.2780170616778,99527.12540153506,21342.90940693053,265.7651963620206,49,6.706694374125105,-2.8409899911047543,Índice
575.7092742243243,371.86637768139997,685.3654290068797,138284.60284988562,19231.17417656665,310.8184029578313,51,6.580830267679286,-2.25679407045225,Índice
515.4214914213369,303.67167468697886,598.2272142139553,92216.48600719431,13893.385942143535,251.6451423146304,42,6.610953723532831,-2.6279587137128915,Índice
599.9056273586879,350.8629668055562,694.9759587296655,123104.82147559682,13531.570331543277,306.8436594715027,49,6.622691490962241,-2.7099547960607553,Índice
547.2802034232417,431.5972895231747,696.9876909836612,186276.2203237511,20401.28662253691,374.6326506932632,46,6.422511335442903,-4.155475112016078,Índice
474.5465888839856,346.89606967263336,587.8191458057036,120336.8831543205,12522.454037723324,307.814524490254,44,6.395757361286551,-3.3930843492977494,Índice
451.55654071122314,304.3598779911835,544.5532524830742,92634.9353308081,11176.81551738364,265.4249560730624,40,6.487173491894492,-1.8120602236492795,Índice
468.20898825925804,331.7210958469016,573.810545490955,110038.8854298693,11587.928206377997,276.8850860486968,44,6.442632767063234,-4.096917926515007,Índice
632.5285454527518,460.39179432787705,782.3381398711277,211960.60428444226,15950.304298941403,395.3764525712318,45,6.432456082845237,-3.0914378158167235,Índice
255.70783480295555,259.12010470829875,364.03872293226783,67143.22866403972,12343.318236302912,208.8353594035699,82,7.37629124384324,-0.3956993724044297,Medio
281.1153161941504,332.1469413017713,435.14068025761446,110321.59061612231,15542.738647533908,245.25531160310194,88,7.0759931033737,-0.39815903282562587,Medio
270.6619974054684,304.2093459182719,407.16835169004673,92543.3261440228,15501.969111068787,223.41061746000176,98,7.333976853559225,-0.556485614171928,Medio
324.5992932568946,362.73093811152495,486.76322236395623,131573.73346326695,21455.52985976732,287.2332772877429,89,7.093343804860157,-0.18500058219969362,Medio
278.3186970989012,301.06337984958753,410.0005559036315,90639.15868645701,13116.597538038204,234.46694548516027,94,6.981634968464197,-0.031364093351696216,Medio
313.22704847727437,379.4485555627548,492.0288510000669,143981.206318661,20532.665353002674,276.96882686344986,100,7.0607695754931825,-0.21480316482371908,Medio
278.023072119341,321.3058618180174,424.8932636195767,103237.45683861886,10185.487145732392,245.73412920234682,84,7.158873453193361,-0.3725940122454092,Medio
246.70283622625678,231.98914832215138,338.64620821931015,53818.96493923715,14737.77687451915,186.75478997497336,97,7.394942199776385,-0.5844225196379279,Medio
317.7176864049617,395.45080261300194,507.27296945706576,156381.3372872674,17956.118460918275,290.33866360880114,98,7.102675075411476,-0.5059446893393803,Medio
278.08118434242766,270.97646852456165,388.27489177041804,73428.24649404275,12590.293223316967,217.99042701106973,91,7.297776422890797,-0.329019583666662,Medio
328.63025915351864,390.21521347060525,510.1624839746831,152267.91282391004,16175.1921277481,304.21441276323156,98,6.889351768021201,-1.046130085140071,Medio
292.67786391977234,336.87666807792215,446.25802124323036,113485.88949528254,15242.41868481029,252.97626357987195,95,7.090479513925871,-0.7256480515149736,Medio
304.11995620789276,384.55393867354974,490.27612578345145,147881.73174934025,18232.49902175374,277.32388069774424,84,7.039199471056016,-1.0261318019580055,Medio
287.6202808905452,318.5817511804386,429.208292283305,101494.33218519487,11508.325633528395,246.11537814733242,95,7.1120879835216915,-0.41916543431373005,Medio
252.23806114915095,258.66617559483325,361.2924437199592,66908.19039685711,13971.230073972856,195.85522732366783,102,7.266197455839293,-0.6656673920222701,Medio
234.68275727472093,239.1972330348098,334.9301070134014,57215.31629150911,9580.8932662429,182.59456811510879,84,7.516377486626584,-0.21089838987097356,Medio
245.53271913682397,248.47328674128062,349.32118514447,61738.97422401465,14857.818735307757,190.84228031808544,103,7.03980841442618,-0.17232660079890744,Medio
280.4355694641844,322.6465242773748,427.4867111957657,104100.7796282706,17335.970046777275,243.43703155009572,95,7.264415761599528,-0.9453514722011724,Medio
303.4281357321394,342.5380842850971,457.60351041003395,117332.33918570429,11527.568923088245,272.99199203926815,94,7.218966876738335,-0.22748735934195305,Medio
339.6455342823006,446.15222346860526,560.723546379042,199051.80650598026,23060.89203304437,326.1060208274389,97,7.025283460250938,-0.676382067164647,Medio
221.49950407850483,195.39358712282083,295.36534020725406,38178.65388872338,8148.690289942176,152.6785031392151,90,7.182622899230882,-0.7336637073587068,Medio
211.6832728313563,187.63987637691133,282.8754694266312,35208.72320674257,11297.215471865344,142.72541228667123,91,7.440090345244803,-0.3781617172130626,Medio
231.96177156953897,212.87604327764043,314.8372170999209,45316.209801543846,9662.101505683817,167.3815573782653,95,7.14815931832956,-0.7871951946177589,Medio
238.26123630964108,206.39865532713222,315.22820566796844,42600.40492084833,8120.071061334458,168.7750683577932,87,7.22842459021428,-0.45575077561405286,Medio
213.97810723602558,202.98727464956067,294.89163918068635,41203.833669656175,11095.844970729666,147.0371650298008,91,7.528849251722354,-0.5142327330686008,Medio
209.3421382246925,177.44264152479948,274.4267149309352,31485.891031298495,12452.707118604392,132.87188323013433,91,7.275745587758941,-0.33178421255648016,Medio
242.16669442744492,233.224855401271,336.212047771729,54393.83317694376,14265.105232061293,181.49711559289148,90,7.401659997005575,-0.5271244531376347,Medio
252.17912447917124,210.90684193546284,328.74915482518225,44481.695975190305,14676.998352131299,175.99628295333872,93,7.38151510186124,-0.2537768005715681,Medio
229.34839154883758,191.0703848905871,298.51059727968783,36507.891982237095,9247.311888071905,154.94351716963425,97,7.246995959406442,-0.2613774489056145,Medio
221.93404143790602,175.8298505901972,283.14458339783454,30916.136358571068,10081.586854734423,142.25843669860868,88,7.3054381917133755,-0.18193759528679856,Medio
239.5761076827286,212.23990759836394,320.06638334846787,45045.77837736207,16672.29514063887,165.76463585350874,91,7.432129038423041,-0.4348297017660219,Medio
252.46636603541367,226.44653428946063,339.1420039907109,51278.032891707866,13481.18971340998,187.06251799894707,90,7.461935761440349,-0.5022083262080379,Medio
235.28240991186445,188.55946100557566,301.5169692548795,35554.670334713206,9675.695364517258,159.19294439154748,89,7.343924744505838,-0.322202636333408,Medio
233.777992836834,205.50225162573503,311.2608638394262,42231.17542324691,12384.872182472272,161.7963633819244,93,7.159081815299077,-0.6086595337950331,Medio
235.13225776660838,191.84366559186498,303.46527094569825,36803.99202772332,9832.030622129254,155.6786398839929,87,7.124806267518869,-0.38733539533622674,Medio
250.60513287466787,236.73553785515236,344.74142122277425,56043.714883568275,17021.97960750499,183.94217288560233,100,7.115546987112127,-0.4305324927699727,Medio
217.09133388613887,189.74480049347326,288.32574731156257,36003.08931430797,14215.04862145596,144.94314168160233,98,7.2948983292312475,-0.13741557892683534,Medio
251.59506727263786,233.61652272799458,343.3318475869122,54576.6796915196,12074.216781197993,184.65116244768194,100,7.1000211990944635,-0.14399682937949332,Medio
257.23711770459244,269.18882911171386,372.33527961167175,72462.62571853549,13568.245925077557,196.63856273153988,87,6.995842356232329,-0.12474738536880671,Medio
240.19379808652744,201.94260352201215,313.80547438895985,40780.815117248596,12360.977937176112,160.14937003432155,103,7.297387342811347,-0.44499100386298684,Medio
212.45093054793787,190.40479506732188,285.28824699821337,36253.985984628845,8886.635033810211,142.621019008321,101,7.215556875308161,0.042489421295402806,Medio
209.79838507439806,167.87866027514184,268.6979846511729,28183.244575776484,8753.695332676984,136.21373830187235,99,7.358221284867886,-1.0901791861719166,Medio
220.8851601152442,195.33254514689477,294.86447251695256,38154.80319356369,9440.56587432622,151.25738752149798,96,7.308040035372233,-0.49763482357130434,Medio
219.37915308953197,170.611941541773,277.9130212979121,29108.434596653373,11006.272274075905,141.19083665826017,92,7.4612402347255715,-0.5827327942475657,Medio
218.5423785382227,182.89476521558535,284.81966906055385,33450.49514326409,10099.959618781688,146.1180392825544,97,7.6342393328603055,-1.112395838736755,Medio
214.76210610006817,183.14272264489657,282.0941253508273,33541.256857785505,10943.447678619026,141.57294198507768,93,7.63268348927485,-0.7657662585786164,Medio
241.43203018715016,226.95943492257862,331.314101108645,51510.58510037621,15002.704923366411,176.64055432923905,96,7.4876564600859705,-0.6034629619111255,Medio
237.76397564648505,196.3440910662547,308.3548446382122,38551.00209663372,11103.84210873446,163.29161189270823,88,7.320665273411948,-0.299695108013545,Medio
201.80656136307124,154.6882613509474,254.27218960980775,23928.458199779012,8002.342661602346,123.47843545336168,101,7.499126953772018,-0.537126516922229,Medio
211.15642981820952,172.7328087061251,272.8070033138432,29836.623203506806,13264.803671512556,133.87487957811396,88,7.413460199617818,-0.3306716097355996,Medio
223.0001285675118,178.14092989122645,285.24817448490944,31734.19090251086,11013.351476779297,148.2674076287382,100,7.6518516168801325,-0.469079785271946,Medio
231.71152442546395,216.1641075005454,316.88665469388224,46726.92137150735,14606.304996691148,165.91033770854432,97,7.462354470544863,-0.7634839189674155,Medio
231.40440535949634,210.4981725479494,312.82180145541065,44309.48064602628,8760.735941895606,167.61353162950655,97,7.247629540154231,-0.27015428592294727,Medio
225.90602499920107,197.6031369065999,300.1341897323064,39046.999715328464,10706.011362624906,154.94873304949772,85,7.1945534089503935,-0.3836445423165865,Medio
226.4779504415188,196.82637139424983,300.0547991824464,38740.620476227174,13354.207887916022,157.2334881297893,98,7.328209021947565,-0.8216926552327557,Medio
232.89008723996767,224.49464809665278,323.4743262744041,50397.84702403996,11333.802073814531,168.04229267993856,90,7.451529787166312,-0.40038944687294553,Medio
233.10656419523997,217.0905667552241,318.53882721736454,47128.31417410442,15054.215414667893,169.24899215014594,96,7.373906836464488,-0.3492764977496936,Medio
234.25726699173487,198.91181210594885,307.3147834610454,39565.9089952723,12163.66529913727,166.6224375739788,92,7.455250452618401,-0.40167254676747177,Medio
239.66922412324078,212.06253514082147,320.0185241547565,44970.51881035214,14128.14810639722,173.22154118985867,89,7.2770502379691395,-1.7552939888877104,Medio
241.45374079371075,208.97529441057,319.32833043320943,43670.673673984405,13276.475475020756,170.41632311450633,87,7.417082223187544,-0.7233945011428321,Medio
335.9913888522069,340.3687749277155,478.2688745137288,115850.90294579384,14313.988745898607,289.1336090666134,93,7.28887603454616,-0.817807012502028,Medio
300.98402802182585,309.41606082378894,431.6592218636756,95738.29869571066,12270.00742231231,256.9590640489751,96,7.157052653324772,-0.5097348817491076,Medio
314.36807767886245,316.32200130152114,445.9673718680582,100059.60850739953,16203.069196016762,257.7508341190159,97,7.112167269949504,-1.4634543735677903,Medio
368.66724870683254,378.13019753983275,528.1079307874276,142982.44629151293,14366.883031502113,318.9566408045048,89,7.059368495642044,-0.49652253516146333,Medio
359.2956108171403,388.5909488286931,529.2412129304046,151002.92551158398,18878.258719498634,327.3028292627034,93,7.014486108948369,-1.138939492305447,Medio
303.07367959174786,328.44879994385167,446.91416339811553,107878.61418455631,14808.118818373541,259.1603840171037,98,7.145300301191456,-0.5248927410937507,Medio
276.0542539628379,261.128838218872,379.9923963456597,68188.27014953783,9695.048342601276,217.5287208086689,89,7.238363979948618,-1.0698253608332982,Medio
316.7498601139488,347.38560654011064,470.114064364646,120676.75963124055,15900.714910013889,275.11925660059137,99,7.090536836463073,-0.558693097733357,Medio
334.12595550494535,338.9210611969737,475.9281877184579,114867.48572288279,22499.12008999303,277.8274815823556,88,7.342755725456495,-0.4344316374672331,Medio
338.6754347818411,333.9786955622453,475.6498914265914,111541.76908945893,19550.693986755778,268.75319526383026,91,7.277182643855765,-1.5633083747442302,Medio
375.69459357668757,529.8263818656937,649.5093706511434,280715.9949208919,22418.2084275613,360.4236818362431,95,6.776658044068255,-0.9143261176622033,Medio
399.76681842480417,460.37668798916843,609.7214150391692,211946.69484387612,26608.137523993348,370.7160832479297,92,7.061412284580171,-0.899378794541656,Medio
362.79037194721917,389.3793237231034,532.1964972833467,151616.25774306137,26713.388156491666,320.89225966892354,94,7.114580335429579,-0.43278028051036627,Medio
368.4570384330131,370.1522879595039,522.2770389864771,137012.7162816555,15618.404166659255,320.682290662079,95,7.123224858246916,-0.7894177954609227,Medio
397.8896649413894,468.7160298515983,614.8259120328418,219694.7166398444,23248.475998466693,373.03630410919465,101,6.97047109649429,-0.499001435358473,Medio
350.71420521616795,374.8279881464261,513.3190766358732,140496.02069789733,17509.6646803508,310.54496530198486,86,7.081034657743588,-0.3788344927973419,Medio
376.60517611404356,394.0120791904461,545.0476834405117,155245.5185479784,25216.12841407102,324.0279185236386,94,7.196509361481045,-0.664835744083357,Medio
339.92807088973217,352.5657578134175,489.74861608927915,124302.61358254937,23144.456241307973,284.16679814139763,96,7.171246705429943,-1.032865917881586,Medio
334.7848501774471,356.0963332918465,488.70692850733525,126804.59858389782,16801.886435163655,294.8571542877671,96,7.325268293265346,-0.6762424243912514,Medio
352.4648203028005,337.9673965329215,487.81820483416726,114221.961119241,21886.684291148933,288.85513288022634,98,7.524133688477417,-1.734260931925343,Medio
