MAV,STD,RMS,VAR,WL,DMAV,SSC,Entropy,MeanD,Dedo
1052.8717145289825,1076.6235084724199,1499.7817992506589,1159118.1789954626,58620.79484717795,917.7352537695408,75,7.3004144243097135,-4.366406879932583,Anular
811.2939758540299,923.926368533021,1229.5681557878993,853639.9344706157,41430.41636073066,791.8198411736796,78,6.824513591138724,-3.39182099294636,Anular
750.3608399364621,854.2162835456694,1136.9814638703342,729685.4590745755,42987.62926137712,730.7935253592495,80,6.74593281523024,-1.3048706081559762,Anular
873.9614706110088,890.25658083101,1247.5437594832013,792556.7797129205,50867.93292137716,792.2361067463867,81,6.860547363931651,-1.535087645412547,Anular
763.3098258164591,816.4282862167601,1117.6748349689144,666555.1465348359,42514.83168237335,691.229902047327,77,6.787608670885032,-0.9610913569173475,Anular
763.1618679051816,782.1460189426832,1092.780138716116,611752.3949478881,43087.565285041106,676.4059599012411,82,6.85179204049493,-1.1970876938568598,Anular
673.7312285973082,653.9903553383712,937.9540981834145,427703.38487560896,46822.91530983293,518.4213644287552,76,7.334452579837575,-0.9982239565848755,Anular
619.41831904732,564.5751838706708,837.866380638889,318745.13824260177,35571.44990033865,475.0208711509115,71,7.215574900894716,-2.1110632119483523,Anular
684.5116590683297,641.8403888754385,938.3577655629281,411959.0847917741,42944.32612070978,548.2684115455893,74,6.998428408142519,-1.6383395704908248,Anular
608.1866990090945,543.9159774276926,815.9262536238805,295844.59050112223,26936.498391829064,482.6147543733678,68,6.964398612682716,-3.1801853899036265,Anular
683.9311737318454,647.6235656365459,941.9013394034498,419416.2827677934,37782.84583629611,550.202977219982,67,7.042369506868628,-0.9706513724793304,Anular
578.3929495099687,545.4444278312556,795.0144828209147,297509.62385216577,32666.41093720882,479.1609999375636,81,6.930206016581544,-0.6595868955899287,Anular
576.1120060527719,507.00079422980707,767.433937787354,257049.80534965516,33441.435610433764,441.8585374371119,76,6.995275085576195,-1.5669788090172867,Anular
585.6230326229531,493.9843436299809,766.1428509684389,244020.53175154308,27316.01196373456,431.3559366824261,76,7.081382911248272,-1.8341429665309297,Anular
462.9056852040778,420.69274818476686,625.5110404857045,176982.38837525164,19992.031477225722,379.14176791541496,80,6.930179896780101,-0.520142705329709,Anular
575.8602298254903,477.34964967967977,747.9824144617166,227862.688049313,28129.243128832444,413.0876865856253,80,7.0590559285732075,-1.2888007343827141,Anular
549.2561161249491,526.1343682194336,760.5916476811499,276817.3734216625,31264.005918608746,447.1538291007212,75,7.0022687689041465,-6.988587921736527,Anular
573.0498926994417,604.1011508992542,832.6610234907391,364938.20051780355,27439.928374903502,502.67396119277566,75,6.784743786618531,-0.297017165294886,Anular
534.0225115401437,492.18264972668663,726.2394946046553,242243.7606919823,24341.94237268285,425.4374090739791,76,6.967368573038664,-2.8985276332301426,Anular
490.14778169555075,468.90864931473027,678.3215825132162,219875.32140216467,29980.395407202686,388.99604890833837,73,6.897058811524984,-0.22439333013312007,Anular
558.8997324367514,532.9329845731198,772.2606276147228,284017.56604601315,25023.95104432576,455.960987390152,75,6.908542313744759,-1.5795331412314433,Anular
521.7026849105883,485.6383738233357,712.754040025513,235844.63012977398,26338.75731607785,413.4050988213126,72,6.9487578860005375,-0.7734042742254362,Anular
793.0741711054616,601.9496029978284,995.6455018850124,362343.32454924326,52675.97181545879,507.60346637742896,81,7.261123427778765,-1.9046624784584787,Anular
574.0195539491656,682.3153454101757,891.6233930120474,465554.2305822074,25565.755047471273,592.0818548118829,81,6.852312032947673,-1.276343192766739,Anular
678.1505561259609,777.5197999318896,1031.709850713889,604537.0392861256,39738.67065241075,666.5159296927422,81,6.761376752654786,-0.9342388777038733,Anular
690.9526176144573,705.2699810911474,987.330373287775,497405.7462283075,33754.96714913336,618.6522527142555,74,6.728123722984627,-1.9470757946983424,Anular
665.9237341680157,672.6690520392981,945.7301876449166,452483.6535714479,40183.83592806455,579.2881734869144,80,7.245317682347814,-1.371693895850506,Anular
508.75629090092923,491.4414660930039,707.3525840250476,241514.71459564113,24015.404894165687,422.8933090118382,76,6.827112714223315,-0.5938806557554929,Anular
463.366441993777,458.1198028558568,651.5997339890968,209873.75376868912,28177.147294340593,371.5252024883598,77,6.806840059759448,-0.6364414128549978,Anular
578.9559708895134,577.2875775812304,817.5885049694766,333260.9472296051,25191.76842650959,504.74835034655393,79,6.815550045419504,-1.8629770394247307,Anular
601.6419158967777,648.2931217923294,884.4529194520134,420283.97176324413,24058.94704590771,560.4817951117907,73,6.60167570537657,-2.0348947506692014,Anular
663.1140633626858,773.8167347801972,1019.0743839657916,598792.339025886,37760.87933402506,603.5819184975148,79,6.663113143712945,-0.2038372569030938,Anular
491.5284921571933,510.9522943564293,708.9940096435392,261072.24710809917,26656.751861644214,434.97138026838894,76,6.866804568935195,0.3475717288313214,Anular
615.5604368288,623.8567391494305,876.4199235361,389197.2309821606,35531.107724470035,512.6894772118916,81,6.908278787560191,-1.642707452921348,Anular
601.6168112800547,837.3064594064653,1031.0309862359,701082.1069637907,39495.18327884906,547.8533532807363,81,6.523745534936026,-1.0125705095993875,Anular
526.4231320532673,466.4463455862584,703.3445153490194,217572.19331077524,21592.001526370514,415.2271908764843,75,6.9171704845149575,-1.0870757269133413,Anular
409.16206781949563,361.74625819365895,546.1446265042247,130860.35531711335,22261.042184378115,319.72452571025855,88,6.867738151255631,-2.310773894988943,Anular
561.8466381973814,514.0302578660869,761.5108343651948,264227.1060018758,26518.093902221804,451.9786244110772,77,6.955847231392227,-0.749741247178647,Anular
477.4554405622034,429.4375417466121,642.1684358358181,184416.60226137322,17413.14409341139,390.0797292629664,77,6.84639851682336,-1.2788966666274613,Anular
608.9200280695932,588.2008003502191,846.6190300937678,345980.1815326383,25346.116359932006,502.7332372480906,73,6.885592535551559,-1.4072765937717593,Anular
547.9542587011433,503.97224517689716,744.4742396734506,253988.02390864256,31909.601524798793,439.26260000033966,75,6.897499365298741,-0.785790967446947,Anular
441.4420853610269,420.7930432694862,609.8671166671377,177066.7852639957,22183.001568039403,368.2813714377497,79,6.636930481976866,-1.2443965174550196,Anular
439.8857740980466,422.44878007221445,609.8872568256692,178462.9717845022,20853.679372366067,359.4713601384902,80,7.076100172026695,-1.5540073578481897,Anular
497.4143565536688,446.10416312994454,668.1541487318392,199008.92436186815,25085.601056437237,383.674000034316,79,6.875752938431612,-2.258272143644411,Anular
534.5378831103892,462.19519433667705,706.6506535396786,213624.39766791867,27336.79508095442,392.4493777937761,81,7.009032608786133,-4.0527197408819875,Anular
210.88218645884737,283.39123351800083,341.24480199025527,80310.59123485409,22923.798814156,168.99750054900545,80,7.623415037367101,-2.631815265281234,Anular
213.56323382077883,258.5084160467291,331.5606931636973,66826.6011669888,15683.438327012238,171.66032549951032,80,7.542986483889297,-4.870402636473758,Anular
334.32803523850976,390.32414996076005,510.7259181375923,152352.9420425899,27327.154676536855,301.1961317921865,83,7.455089838310243,-2.2316208611623947,Anular
672.1389615505658,764.4277473000018,1017.9000758799602,584349.7808421555,56484.60514209061,644.0697464788497,79,6.7979201621831615,-1.1964337407834043,Anular
371.3549519827428,434.15236370838215,567.2866981835581,188488.27491357533,29982.33096142684,336.7146442891823,81,7.523514735763376,-2.2283773423006568,Anular
327.629698434407,399.552758906505,507.88053795611876,159642.40714979972,35334.2091113432,297.07887251487074,80,7.6071109039541955,-1.9109132287781598,Anular
372.1624242075192,385.4427835083529,533.5285858150961,148566.139358667,33785.030216380714,304.8492559335708,77,7.4258059737295525,-1.527368239044647,Anular
700.5312350808567,707.411892669716,995.5780216610149,500431.58589054993,33786.585522954454,611.2675966081018,72,6.665407929568951,-1.4688801134946925,Anular
499.8944440447314,440.84153812139397,666.5101026391326,194341.26173323643,21145.902871896058,408.39696806897246,80,6.886845751153599,-3.745121790080026,Anular
548.5760928970983,550.0932791636164,776.8773040057395,302602.6157809805,25476.47051978909,484.9724085948246,79,6.80679546923154,-1.3184382322062884,Anular
639.4352279201793,609.85400712634,883.6284970016444,371921.91000805394,25358.01708464656,545.7935502227776,82,6.697962904920538,-0.5712193854031987,Anular
658.838677467652,642.448748139927,920.2221454159227,412740.3939865594,32877.99223411459,555.0971911531514,82,6.887838952873943,-1.1453699656656686,Anular
567.8973938292013,509.1197023001954,762.6993648799235,259202.8712702396,26047.700603640515,446.88528441308404,77,6.850072506617165,-1.5084255963754576,Anular
593.7915348994097,601.904151088142,845.5039881723404,362288.6070971369,26246.291503802942,524.4140929889503,84,6.647115479242375,-5.709029860883497,Anular
648.3128811482768,599.2369485465634,882.8332302117863,359084.92050339666,26732.86256960656,535.2791922043745,73,6.959052045835084,-1.7344430153942596,Anular
629.0769744295576,629.5921231829977,890.0135287351093,396386.24157407496,38553.59390086808,526.1835983324494,82,6.7502095843823176,-2.075487120368746,Anular
730.1072382664383,734.2424201157237,1035.45570203,539111.9314973948,37501.225931117355,634.4849751369056,79,6.6585446770062,-2.5795927636699685,Anular
686.315945052739,674.0971747649995,961.8884762479569,454407.0010261543,41383.233574659745,584.5375150476766,77,7.087947921516255,-1.9974052693711295,Anular
594.0126481695929,542.3000451230693,804.3260316102765,294089.338940483,28045.54922646786,487.230317167363,76,7.1007412782373045,-1.388721360174413,Anular
740.6523423494342,695.7434346386194,1016.1814892382395,484058.92684274283,37339.9014971522,615.0489129243514,73,6.8618860233042405,-0.49836205738349015,Anular
600.0174856235332,629.2527294709115,869.4710924467696,395958.9975465922,36501.62875599686,531.4705320131361,75,6.635993195155483,-2.068975878706446,Anular
647.0217264450697,657.9409618865452,922.7802684388904,432886.3093281923,34395.21849142105,553.3254853935817,72,6.796539443300788,-0.8485333504082004,Anular
701.821655569417,711.5396474937689,999.4209854619598,506288.6699555569,43906.44988016561,569.9163126924169,84,6.8471509919460605,-2.57861577877773,Anular
788.7527893862944,869.9614383463756,1174.2929221341471,756832.9042096948,48817.630958996284,739.3039415790441,78,6.678474596047843,-0.8270279130017586,Anular
834.9139329594011,855.34495817782,1195.2808343355762,731614.9974802166,38267.30350845787,760.4892873830247,80,6.703471233646037,-1.4905776049374322,Anular
745.1662498889436,805.8387472954672,1097.5649532561977,649376.0866427278,46288.815406099064,680.9088057458935,73,6.61132304921584,-0.555707413418356,Anular
709.0952934522177,778.4341861911253,1052.9842911587648,605959.7822310395,39057.18234054959,667.2070017872553,80,6.642968863835969,-1.4890837261870933,Anular
612.8493300991927,706.651630375683,935.3827174561438,499356.5267126109,30195.308039817108,599.439260528669,84,6.364616837854262,-2.786194491167925,Anular
882.4161999691298,846.8027007094669,1223.001702327845,717074.813928847,51039.975927413136,735.9537832264092,71,6.844353403039166,-0.5932748617613682,Anular
650.6740043548615,869.705641234209,1086.169674745984,756387.9023946067,26111.92710541487,731.3943771253821,80,6.288166198243609,-14.607538596384071,Anular
620.9166496019295,864.9819842298581,1064.768199560406,748193.8330422225,35013.7780953231,674.3820840426515,79,6.4530061696546435,-0.8365499068879058,Anular
799.3895552079027,899.4544802583227,1203.3461775533497,809018.3620567695,31346.72392493104,788.9754107869472,71,6.686316890774178,-1.338935276011866,Anular
696.5322003530566,784.7293255157131,1047.48510514081,615800.114324346,34271.17279141337,676.7340019102936,75,7.173972677133392,-0.5076339722590925,Anular
701.8209501186785,804.4633392472073,1067.5738429814828,647161.2641927672,48247.692582622934,686.0660560342034,78,6.5876102937494725,-0.8605028104051179,Anular
627.0078662953669,604.0541271666419,868.908717167529,364881.3885470536,29951.95066007926,520.3072962170548,77,7.30771712226215,-2.514068005526947,Anular
688.9075744025923,652.8160960413363,949.0850864490043,426168.8552506512,33687.94803211748,572.6512239243227,75,6.906211326495635,-1.9300867823745507,Anular
712.6274682255261,774.1352978413563,1052.199300433833,599285.4593639255,34563.66993521948,658.9048004913827,78,6.6473180618549055,-1.2106896127406668,Anular
625.4653594327517,700.6718967342073,939.2273541179757,490941.1068731117,31207.88511572256,595.58329001956,72,6.699948165084191,-1.3699830536166901,Anular
624.4648648562023,607.9326910662193,871.5150740560317,369582.1568670152,33152.064061417135,538.2254401151276,77,6.750312168082607,-0.55285108320219,Anular
803.15762160216,736.7419343371507,1089.8857017818357,542788.6778108465,44185.930625583555,647.2827884299454,82,6.97400833069959,-1.3037568400220254,Anular
639.7587516985875,622.8124741618512,892.8530888934313,387895.37797160656,38947.350426899444,544.2635266301227,80,6.755597579025167,-1.4361371167061612,Anular
575.8101893610863,545.5765920192573,792.6524106576602,297653.8177593471,28439.448698186898,484.954737433511,79,7.1979140225124505,-1.4718242501473304,Anular
670.2879765179255,648.215784856268,932.4535780409243,420183.70373682753,25782.04426868201,586.0577369349705,72,6.741493740783519,-3.45468666985849,Anular
620.5014342830966,654.3227010333044,901.7539725639691,428138.1970875191,32304.442903269806,553.937123813378,78,6.887640168365669,-1.007954510715698,Anular
695.3344138810935,766.8961266401685,1035.1906182839264,588129.6690556934,39074.867823430766,644.7938870491736,75,6.626447272251986,-2.5227621988100464,Anular
668.1621416692062,665.042371748995,942.720533234271,442281.35622152855,37106.982756672274,595.5675309402586,82,6.712775049821051,-4.249781299250214,Anular
575.4976110044237,636.6798146439452,858.2299730531714,405361.1863750484,33345.67573439606,534.6983284523412,73,6.561307290248026,-0.6915999186005974,Anular
577.1399638684758,620.0206996443565,847.0621865833253,384425.6679874773,28014.227714935896,528.2707521135212,79,6.985201885762452,-0.5541839066553098,Anular
689.3825783489932,744.8830241743934,1014.9379582192678,554850.7197031899,32312.42981132866,628.2632503777318,72,6.577543172498739,-3.5834396361207013,Anular
466.35301987777495,520.1595147094356,698.6065129183064,270565.9207427555,21459.923759780624,443.4625993520221,76,6.606322647600441,-1.8385512481599224,Anular
603.2776389780379,627.9628727546358,870.7934768067402,394337.3695582549,35922.2854028688,544.812101352076,82,6.999530093438134,-1.4678378898774154,Anular
604.3293743695908,672.7130987965464,904.2991241941976,452542.91329245205,33390.46340548287,554.17124510368,77,6.682006857560181,-0.8594464754911444,Anular
596.8287592616502,633.5979122442982,870.4314345668672,401446.31440033333,30306.291499316798,562.0409789313461,77,6.743599051435519,-0.2626374247746814,Anular
477.8749911213529,475.29161891388753,673.9930490361292,225902.1230097841,25222.219439473254,415.6613688581588,80,6.643291710646439,-1.0232959497726632,Anular
568.7145236811506,644.7424668587936,859.7261529214062,415692.84857116255,34578.32223102675,535.0043263464441,81,6.852479574715858,-5.185810402713085,Anular
595.0483572730176,627.1975627611761,864.5573030325266,393376.7827335594,31810.389266977283,530.2233084178511,72,6.647730415637899,-0.5464919925438922,Anular
544.2544005967867,593.4074953708664,805.1989245716194,352132.45556232485,31308.277751135916,506.08448583356403,85,6.82901602901621,-2.070072577483159,Anular
624.1704361253846,722.7600568956789,954.9716399856061,522382.099843845,36626.969760446256,592.7179578017171,81,6.476661754923112,-1.7192626498005807,Anular
664.8018737929962,607.7357723196922,900.724319842476,369342.76895701274,30721.041123223524,542.4927113167422,77,6.999229509518,-1.8698206823947123,Anular
578.0605404393137,664.3146596803706,880.6065838268743,441313.9670662466,31450.094438959142,571.5708461469825,79,6.418525366296821,-5.37971605872341,Anular
633.6864133489414,639.6016005628758,900.360304492395,409090.20744259254,29977.520825392832,574.811404885515,81,6.6265610520234235,-0.8155262788983403,Anular
706.5202262269742,706.0405223121893,998.8313417262618,498493.2191468691,39686.90384141348,585.6940651829021,78,6.752244818320545,-2.444741727134359,Anular
607.5631036921154,579.1226196626957,839.3544743271341,335383.0086049833,26919.461219998408,506.7920206746502,74,6.748916244964735,-1.6999838391884832,Anular
663.3185697114994,618.745731158894,907.1040760306745,382846.2798273544,29779.374548640113,540.703272399797,80,6.724372746500505,-2.137795887925584,Anular
717.4287250595951,676.8878391533123,986.3473639313264,458177.14679364034,39308.22579053446,596.3005023899624,76,6.790755494338685,-2.234165775796187,Anular
644.7378778461369,530.7607733365478,835.101149348,281706.9985128103,31083.97453909088,468.5860596301289,77,6.888636829517124,-3.2839501329629335,Anular
594.4328732257612,523.3201928670464,791.9687273079896,273864.0242624027,27882.83984457538,454.35960772400625,75,6.885865755063772,-2.528605449511057,Anular
659.4133819644744,559.8276623405943,865.0046357306765,313407.01152173453,28291.045170681864,506.8785796635236,83,6.852774769803849,-1.6214059061518828,Anular
575.1302801090404,504.41356029620056,764.9888096625937,254433.03981068873,28053.8663152422,437.1687673066262,78,6.831937792366154,-2.6169095958702115,Anular
614.3586368129028,527.2585116439301,809.5912998097131,278001.5381009724,35295.69183881619,455.35643241807145,78,6.881729286925808,-4.344768085806434,Anular
635.5032174043148,561.825027201935,848.240355395622,315647.361190455,29581.051729094484,490.5235796133309,78,7.073177181467317,-1.9920182161095188,Anular
585.6646694683852,496.61464100751897,767.8731709901967,246626.10166302693,30739.80315807459,437.50045912258275,76,6.835791353734611,-1.5077087036536425,Anular
502.8448038086361,473.9232317407084,690.9820014305025,224603.22958355717,29337.02591207055,396.24562734301634,82,6.683977266923202,-5.558887111932671,Anular
488.7870122176333,407.31426895182994,636.2528247516112,165904.91369176368,20634.624173584172,363.0411360141221,78,6.773345189614299,-1.4898157684778686,Anular
524.5942481043667,449.6464646362152,690.9276867401053,202181.94315984714,22627.127132645077,403.2959469937746,86,6.7744423949788235,-1.260692421339669,Anular
568.3148128583116,574.7571401374151,808.2867663478833,330345.77013894025,30715.43490396971,472.04894159748625,74,6.643900652471091,-0.7988095896093274,Anular
576.655590422531,532.163907493902,784.6847101892174,283198.42443917826,31795.90964130508,453.5026665951084,82,6.850370667312444,-0.8999083926568716,Anular
480.7545550403099,453.87426184273454,661.1556456351963,206001.84556328715,28335.16612390579,387.89343197350775,88,6.644743436438551,-1.9566770441111088,Anular
557.1988959528371,514.2798044351459,758.2574278573949,264483.71724985196,24986.467563330003,453.3619689976305,72,6.709421175397409,-2.3587233488364863,Anular
501.41006064618244,549.9490044865805,744.2149934346854,302443.907535781,21751.921310822778,472.46267608901354,79,6.418015381247041,-2.9738908441399445,Anular
468.13531429866873,461.13254739352084,657.1102637755331,212643.22626563776,18705.888591266586,396.1685895535344,83,6.542004620090839,-1.360886377524217,Anular
440.614251162878,428.8667528758289,614.8720273764947,183926.6917222573,21811.464318964536,367.0039213812211,77,6.658602649422087,-0.9948257880760483,Anular
486.5160231584874,472.12639560011536,677.9389162839869,222903.33342235663,20749.812427942186,415.4056326280821,77,6.541857927509717,-1.2436908305759196,Anular
526.2291482830578,569.7516187758752,775.5862451078169,324616.9070977302,25165.566381021796,473.0072481347986,69,6.446177031231362,-2.1180051461905354,Anular
502.3922699217043,500.51273474531865,709.16217504836,250512.99764223772,20030.888840056068,434.60746182988134,78,6.552110367677359,-2.7639439387358657,Anular
617.915726345439,628.535169725819,881.405868171568,395056.459582264,29131.077007548043,546.2859544708772,76,6.675338080710585,-1.8831862427788666,Anular
541.8941907410641,535.5545342842246,761.8844880631875,286818.6591923927,19457.80614164964,463.7058328797374,81,6.609012589548469,-2.421892496792801,Anular
440.50691851312985,396.13507233809213,592.4266543583592,156922.99553630548,17606.31964122709,351.36233541634107,80,6.710687884143234,-1.8616783578507863,Anular
480.5871483551594,496.2567724716443,690.8218231846164,246270.78422397334,23642.830206279014,405.38873830882244,69,6.48720756899584,-1.5663275186817083,Anular
499.22908648653464,511.0261446304173,714.4070277439941,261147.7204958282,19284.680831072696,436.57980223229566,88,6.490580110275707,-2.5529812689100906,Anular
475.63138803670716,486.13691706259357,680.1134606937638,236329.10213112296,20053.86847882625,413.5423790654113,79,6.458607101493059,-1.8528749957626525,Anular
335.15530270353656,267.81606365194773,429.01575831235306,71725.44395002411,11106.068987067018,231.03893040179042,61,6.557067381167289,-0.8666960538727305,Índice
326.31448928405325,260.47022931180584,417.5235158340873,67844.74035774471,11529.065723735353,228.01705987200262,59,6.513505792993928,-2.15473877110841,Índice
371.25519553218857,274.77784559732925,461.8801626404334,75502.8644311097,13307.355940838013,248.74842563188932,58,6.846526307413067,-3.7533542727708844,Índice
343.7586141057253,219.5270201348025,407.87510017302463,48192.112569265984,9844.50998500899,189.5504545603918,57,6.7695987332237335,-0.5241471687795063,Índice
347.82481152971025,213.87260723279343,408.3180030812152,45741.49212455272,10143.520517249091,180.251880235508,63,6.8285516274594,-2.871502242542422,Índice
363.56998666953274,213.19720745764286,421.4690789068891,45453.04926773721,12182.100011730705,182.06302871332957,55,6.995614749549167,-1.4127937794897865,Índice
376.9178526662366,258.6572305568402,457.1330556608887,66903.56291933439,15944.303881292974,217.65260583276495,66,6.8341322233388215,-0.7152460237961539,Índice
350.2400300218097,244.48346388040278,427.130240957765,59772.164110960206,13013.587631138973,206.6590230417739,63,6.716570111595807,-2.4775857577521765,Índice
348.29374128198214,235.26357374466522,420.3064112612508,55348.949131111534,12412.910203910487,197.7812419997955,57,6.7271335910831915,-1.1318245416790642,Índice
371.1428487002391,228.14049287740946,435.6547929630477,52048.08449034731,13953.308860804753,192.5849489095819,61,6.842487562364642,-0.791996447932024,Índice
357.4057092772519,245.93548925218832,433.84686918046197,60484.26487371323,12301.529938718668,208.69222686199876,58,6.703600467427662,-2.322918421735645,Índice
322.6865328575825,205.87720027497633,382.76888598828197,42385.42159306271,10410.520716132913,169.26681989324328,52,6.731915883184867,-1.1960129307375105,Índice
357.6875796612063,210.69474592230853,415.1297153940658,44392.275959266146,12476.383685354665,171.62285535677677,63,6.821084588518769,-0.9339110695298901,Índice
355.18516350391815,237.81276840924068,427.4475560718207,56554.91281846714,15294.447825970867,203.51901911307374,66,6.774688893039233,-0.5190849815832155,Índice
361.43953605925026,221.55052048804214,423.91629032435975,49084.63312852238,12400.422412705511,189.2150897490362,59,7.057621183975387,-0.6655935775642826,Índice
395.31897512650005,256.71884933894904,471.3614957768403,65904.56760591402,14399.81677031394,207.69292366517075,60,6.776964686263389,-1.0567660648357038,Índice
380.5257813490872,241.49248275309375,450.68668662119006,58318.61922625328,16522.63535819269,211.41555325831598,66,6.866008049677146,-1.532816053664155,Índice
380.57743169345747,226.83119316068172,443.04804672302384,51452.3901906985,14469.812711193545,192.5639654808825,55,7.018260393091982,-4.828177968167571,Índice
407.74909456159554,266.51310580063443,487.1227357445977,71029.23556350017,14879.397188549698,226.1675789313008,58,6.939239139368359,-1.3078800461652056,Índice
365.50371703140127,199.51469070379562,416.41215036355743,39806.11180663123,14413.419023333245,163.4477609229808,61,6.947202175389573,-0.9320006511430841,Índice
416.21537009666355,222.05033258148836,471.7431340297941,49306.35019954959,15309.518926295383,192.7540966847238,51,6.962647980083089,-0.6415241547587881,Índice
425.70950142329,273.24906711393027,505.85930087396747,74665.05267863316,22886.849487766798,214.53488688302866,62,6.963745541140984,-1.2350216142628625,Índice
317.1892995251889,281.4098286855527,424.02894171755787,79191.49168083214,10546.393616649362,244.14289079881206,58,6.574105390307031,-2.2014061906254283,Índice
343.0747002940068,281.78601475938973,443.9635211318623,79403.358113979,11394.024274629624,244.84216338609613,61,6.585534573222126,-1.7726246096526341,Índice
424.1291483737904,315.64149238698934,528.6918632025302,99629.55171628586,15986.465349358194,275.20278643615376,57,6.731557748885042,-0.4543270951772212,Índice
345.1368241353567,236.20487821385782,418.2250253945399,55792.744492023405,12698.725600788137,201.41253720886147,66,6.834386161225999,-0.630288239432978,Índice
373.9398241265154,254.94321417766855,452.2273830230708,64996.042455240575,13776.94071544569,205.85792226377214,58,7.060842716837318,-1.0569864211206155,Índice
349.52619818890736,201.24131546745053,403.3195138738779,40498.06705106995,11679.588093432321,171.92910084136747,62,6.953555434753105,-1.562172667640615,Índice
368.5434803118522,225.5394157208025,432.0790725365597,50868.028043680984,13264.626364062313,192.4962625378123,63,6.954801628255814,-0.7034835939516922,Índice
412.2691396933761,241.7983129287618,477.9458836298435,58466.42413519541,11754.125631331539,209.06314282276165,67,6.934738715353861,-0.8860981085917158,Índice
377.8209325594347,253.8211292919072,455.16351210867043,64425.16567501907,14750.511952966513,219.29463081398367,61,6.808876059220141,-1.2430012750147434,Índice
369.88502641089536,265.1529041180802,455.1054771426516,70306.06256225181,15282.599092327011,220.86997257466933,60,6.9604468879119565,-1.4548172344285921,Índice
392.18155885566426,260.1636213475978,470.62881868746103,67685.10987269625,13330.619246562732,224.692820412869,51,6.813380999386407,-2.2164464830964556,Índice
395.53319040070807,266.5088041853919,476.9417652259975,71026.94270832757,13567.180719051474,233.29442969550308,59,6.852201181721285,-1.9503233048597381,Índice
362.0250446326571,251.95683613228496,441.07185380056666,63482.2472737911,14856.275736376176,209.0604326798309,61,6.768727609302353,-0.9559292973118177,Índice
370.1467891117918,269.906209395625,458.10261662654176,72849.36187031497,16913.68489144923,221.32759870379016,58,6.740633304073489,-1.1177279487122154,Índice
387.97853201115726,290.6306380603245,484.7612908235188,84466.16777935132,18929.436068275827,232.7682585977709,61,6.771758828308081,-1.327278482988257,Índice
378.25164708706643,242.81321525153047,449.4803288519586,58958.25750078607,11997.394773983471,205.71814306923812,54,6.821026019924053,-1.6013942576616615,Índice
431.98509770568114,280.5566233774003,515.0952761972441,78712.01892092841,15738.729136939466,250.38536652013073,61,6.882293690410398,-1.461712438199609,Índice
313.3102730741547,222.03648233573057,384.00980026794434,49300.19948802519,12623.57017868614,187.12894655768477,61,6.868866061507044,-0.6139863419429973,Índice
357.7202261066474,217.38453410865154,418.59263710130705,47256.03566963548,13719.796786509141,184.51583450849887,61,6.874996472408389,-1.0433722322943246,Índice
402.46372526589005,282.07158738152077,491.46864657150667,79564.38040793092,14779.840457482329,233.2420021972773,58,6.765780095687858,-1.2152811128722485,Índice
314.75949693453344,235.1915905543092,392.92317974121414,55315.08426746581,10682.612550606287,206.21558610815407,57,6.5380454820830405,-1.5883256186438726,Índice
425.5658590931135,280.6339819729611,509.7663506584757,78755.43183800028,13214.233723646903,246.561857512154,61,6.7552395327558905,-2.4657862383386027,Índice
391.2635061687508,266.71931253859003,473.5254195294296,71139.19168105806,14408.234458156265,235.91545264081898,61,6.7536418091753925,-1.1226812222972125,Índice
364.2175957145487,240.81734523889432,436.63193973413735,57992.99376790882,11652.687866980517,202.82050167265334,59,6.775730844174941,-1.3428874903144028,Índice
413.2220000605625,272.9361858064864,495.22377048829617,74494.16152259285,13963.401841514973,238.4100367943096,60,6.7441706615122445,-0.8243531379517851,Índice
392.75068278288387,251.62761914350637,466.4435202060919,63316.45871582949,15256.85248605582,213.73333031282257,59,6.758344033469198,-0.6724628878897506,Índice
390.4300551107322,227.11525749387334,451.682375259737,51581.34018650839,14753.605880912459,197.16183336905794,65,6.79377178340318,-2.157701002033821,Índice
367.3446059268425,211.08307091479563,423.67218734579194,44556.062826820635,12079.57409859687,178.77867956390523,64,6.910746359080107,-1.4289310074257582,Índice
383.9225043669792,227.55981381107676,446.29581918403096,51783.46886173192,14700.066716382242,187.24204595142444,62,6.992923396392737,-0.9381529592882151,Índice
432.5583621844116,281.95326527780605,516.3374676473493,79497.64380081686,17356.276422756382,241.9868113768184,65,6.930103737527107,-1.1619218083734195,Índice
377.8828042062435,282.2125929510149,471.63477536639465,79643.94762013524,15652.03361174482,225.05286780570054,59,6.558573276807662,-0.6704871926867464,Índice
419.05509998119066,291.74922140676506,510.6121669248582,85117.6081914536,15920.979832383917,245.8945099326177,53,6.732123144934893,-2.583126297577543,Índice
448.49663669150556,278.6118816434639,527.9903538100897,77624.58059291154,16357.097656870457,234.31855687580142,62,6.9950987084206036,-2.7455070368251735,Índice
402.1137598041584,270.81542234157695,484.8055989795117,73340.9929780467,19654.43273554787,220.98993687328613,61,6.83660105757631,-0.7804063811009883,Índice
384.3215002289969,230.66767339803624,448.23051110910563,53207.57555086312,13491.561912055378,195.7942696057081,57,6.946355563578512,-1.2380679777488002,Índice
368.40623403535443,249.54003208860024,444.9250474239783,62270.227614779644,15771.910622540581,199.8757183012974,64,7.024302699440644,-1.4074374367384506,Índice
410.62553809782315,249.21155523930457,480.33293849466526,62106.399264792955,13028.458989044131,216.4073893423481,62,6.883326349221251,-2.880450541055812,Índice
417.10700830636006,290.2602389150279,508.1626340781963,84251.00629500908,19600.94538416422,242.61356450242803,68,6.683476431291118,-1.3012397574923575,Índice
332.06279514698304,205.87075463509146,390.702530750505,42382.76761402203,9351.355872095575,181.83829972795337,56,6.851062327487172,-1.7918407708584136,Índice
343.14645527560015,213.04587342614784,403.9034958404293,45388.544183910206,13756.342388316667,180.84507818881622,57,6.708187155006307,-1.4147058430641977,Índice
345.62814448603893,212.98105625038923,405.9799805192291,45360.930321531465,13715.853667038453,178.64754824172425,63,6.823615360065521,-0.8749476592772497,Índice
341.3660641357183,246.18010875163858,420.87460803483975,60604.6459449686,13114.56771251797,203.13843458653395,60,6.623598787661414,-1.7992270485991806,Índice
325.57555341518474,206.32531360367568,385.44724154579046,42570.13503365512,10431.019975105686,175.8547754705401,57,6.7578073001458545,-2.2159635070292043,Índice
451.17046088188715,279.0510955314032,530.4943908182732,77869.51391727632,22243.665219979528,230.73704691538273,63,6.825830412679333,-1.10548326531313,Índice
371.7929794401458,246.6027728466175,446.14229471842424,60812.92757564044,14087.199365162713,210.90309672029701,66,6.675024027196135,-2.108976323254421,Índice
334.33721127766705,232.6574225897627,407.32155250003495,54129.476286111414,14160.535690333581,198.51721475154048,58,6.612720154913768,-1.0562780261081814,Índice
404.4697683650289,283.7729545743483,494.08793070577553,80527.08974785516,13340.160970589695,239.66221073605467,58,6.682319637912872,-1.2280513019751562,Índice
317.41741623594464,191.72873555100944,370.82842955454714,36759.90803598891,11452.412022271335,165.0117296217971,58,6.704410837401305,-2.767473381335966,Índice
336.0908378998751,215.49667262992796,399.24411985001177,46438.81591457034,10566.716680318646,180.90026483826784,55,6.709177889097419,-2.4540161503171523,Índice
338.0950216184145,193.09996468631584,389.3531045272563,37287.59636185643,11137.242169383087,169.13916174429477,63,6.805610394992291,-1.0463587353126182,Índice
380.3698716099652,288.0553014397989,477.1342535556996,82975.8566875734,15420.035178082442,258.11313651552285,61,6.8783221350185855,-5.7069523436611,Índice
372.6641902240596,269.4290303145406,459.8593274595913,72592.00237623365,11383.944915146276,235.24215433460847,64,6.625139741422991,-1.3423296261573312,Índice
360.8376372592556,267.90854377750287,449.4205027497346,71774.98782898216,11648.638891281269,234.19561616700932,65,6.532538784833357,-1.6732606922870805,Índice
372.41908912677883,252.64641905845957,450.0291001802909,63830.21306306276,10706.713892122405,221.09152324312,60,6.727197791942074,-0.990010893220775,Índice
461.18820070737706,318.2302107727115,560.0015598909529,101270.46704844436,18021.399572695696,270.00875588262994,59,7.013634792144053,-2.1322980709147923,Índice
330.0111856956999,216.662693349858,394.7785523225601,46942.7226896146,10562.720483232726,187.36620955552104,56,6.701640379355366,-0.8339428827173089,Índice
349.1043076051513,238.75949001706047,422.9419719792289,57006.094073206805,10753.42916972865,210.3514213303677,59,6.820581807422937,-0.787003532907386,Índice
394.41387355055025,253.8438262200705,469.0405011928019,64436.688110045354,14169.970091585472,211.036531715038,60,6.779913568274745,-2.0291466381602734,Índice
411.83752181793653,269.96800395951414,492.43564811965376,72882.72316188423,13458.669074025947,228.08396991036986,59,6.83502810905943,-1.1532688965119375,Índice
388.5590823536003,263.1902120993295,469.30506946373566,69269.08774489003,16046.55491000368,221.73080468046118,61,6.736527138169089,-0.5458733908308893,Índice
346.2422170004995,229.42161434178732,415.3528017969938,52634.277127191795,12810.816084906883,201.74326647716595,57,6.814033490104893,-1.070419235635561,Índice
384.16201521573635,270.81672095972453,470.0235635433534,73341.6963513773,17475.040438550863,238.71316657004812,64,6.711262714576207,-1.7105949544836987,Índice
353.557949012896,216.0235930717791,414.3300810632112,46666.1927636416,12990.50337008385,187.71486012625704,61,6.955407555706854,-0.8626166588196725,Índice
325.9448626686357,211.46165806195188,388.53067617677976,44716.03283030986,12311.103241463392,176.28805281840178,63,6.809368509512032,-1.5296889737471,Índice
381.4873869859346,301.40014700058555,486.1837873081854,90842.04861197459,16467.039828899775,256.07273008417116,62,6.560691688007931,-1.1582297498807854,Índice
313.35256240409853,205.68525192447356,374.8282956560892,42306.42285923416,11264.816317487563,177.8332676575787,57,6.781996400602331,-2.3625056068337433,Índice
377.13619454280393,244.87458622959034,449.66128609803707,59963.56298111308,14253.196846389203,205.83325348583998,61,6.748469511577231,-0.7170942166625923,Índice
336.0047163175515,242.99926757529354,414.6659057961814,59048.64404212911,14596.798268491013,205.15271992108933,61,6.693227434873403,-0.8394542734269342,Índice
402.35646201667566,225.9950829644684,461.4807688850028,51073.77752411696,13946.381215469799,175.38412516841296,54,6.914403554905831,-1.0288679453470253,Índice
296.43700825772214,194.49409641156197,354.54598207247943,37827.95353894996,8136.020110400021,168.96093460194945,56,6.718838617730441,-1.3305929292965315,Índice
317.39819502430623,217.89791364161383,384.9949544786994,47479.50076936819,11038.087787834385,190.6496719431778,60,6.945583708411195,-3.2479687435005777,Índice
384.32216314904156,261.9909011444263,465.1266035930722,68639.23228246854,13183.896168380106,228.81337629196386,57,6.915489501079385,-0.8269026392091974,Índice
392.2607486470651,237.734696004828,458.678842561616,56517.78568450798,14615.705780497869,201.8494947561788,65,6.781369827236876,-0.9178133543500379,Índice
283.947770016409,165.8193171645716,328.81968013216056,27496.045944924786,6210.602240046204,138.7977796429926,59,6.734356602462456,-1.2664299289282634,Índice
344.64450317374656,199.38335771887412,398.162726662267,39753.72333525252,12472.740702798128,167.76826122075593,63,6.997972098289792,-1.9072095246113683,Índice
329.6394391820141,214.66383343071772,393.37351365769877,46080.56138317093,12331.924700594333,183.67375355330276,57,6.694822605645232,-0.562515288024536,Índice
313.6517157441297,229.84400712695034,388.85172804220633,52828.2676121736,12314.772249897724,194.06998687036412,64,6.636397984056727,-0.7631783305736405,Índice
323.5677329793665,197.43148951933088,379.04520954528397,38979.193053821655,10469.151397896348,167.33031340191775,66,6.777275787621311,-0.7161203437947046,Índice
300.109256709252,184.60649645559275,352.3423399141644,34079.558533608775,12337.080842285508,153.36170354704464,60,6.864359514478366,-0.9437027285375953,Índice
327.8103214312566,199.13928967409694,383.5571189911193,39656.4566919039,10675.176978432713,167.3933704776491,53,6.802002695617242,-1.4840256337325919,Índice
330.2096334408113,239.53657641988352,407.9413848337451,57377.77144295869,8876.14658214537,216.0022370135609,62,6.485183249528934,-3.2124576792023403,Índice
333.63435399553737,240.9211352632278,411.5274906765549,58042.993416522506,9321.871501548165,211.3514981362947,66,6.395698568342615,-1.4896707233076036,Índice
360.37585551207275,245.08468086397,435.817918436418,60066.50079419402,9602.784746578947,217.9306814129316,60,6.591258420034428,-2.248507643900733,Índice
371.84017276068005,230.10156666593488,437.2777664835134,52946.730982117675,11242.762030661537,199.0099263535938,64,6.6982809363366025,-2.1027911681436238,Índice
376.0146889747725,282.0307196324801,470.0301832235982,79541.32681641458,12564.977634858153,244.74766269188603,64,6.425620262870896,-5.205946046806382,Índice
324.75725490324095,234.10856033372278,400.3424691858423,54806.81802152832,11726.215095572235,202.73193302332328,69,6.381736672182543,-2.2750215541657615,Índice
356.599350409256,259.59824833976774,441.08315231187316,67391.25054107571,11423.134463671717,230.91211173698954,60,6.481085842453009,-6.30280414637289,Índice
370.7587727979564,271.3732397930233,459.4621887407149,73643.43527576172,12877.278551570056,230.12846149768185,61,6.567235477471366,-2.687773956965507,Índice
362.21506240714245,248.12456677765377,439.0507397479344,61565.80063859837,15697.188663798443,210.12615626178018,65,6.538746182507381,-2.3790787958379624,Índice
347.0990655005827,241.8836137190008,423.0667132464341,58507.68258576279,10635.134259822737,212.8245703215327,58,6.478124035107971,-1.957970245817786,Índice
306.42774244342894,198.20754683570684,364.9440956661792,39286.23162262892,9677.675268817124,167.24544954492723,62,6.545643849647693,-1.331102779938938,Índice
395.0127860041234,293.0409571735436,491.84154327173894,85873.00258118659,16415.46060800237,241.3678687547299,60,6.632580726307592,-3.5903256273654014,Índice
335.18422336147654,248.2008615196802,417.0756900726147,61603.66765911146,11556.427200670167,216.674612108628,66,6.506117512582501,-1.386192686486648,Índice
355.1511387749208,259.01271071850033,439.56787381116527,67087.58431374552,14649.02817286699,221.21309783512007,56,6.428108571962624,-1.3696992323740682,Índice
368.9268486479357,258.7341555875816,450.6111216125448,66943.36326761889,11807.62824705662,219.13396439382115,62,6.548521281396641,-1.4515764596326304,Índice
290.37500237685765,183.49061660668215,343.4915550462057,33668.80638270042,9548.056923673439,161.76337759227,59,6.646596393286706,-1.5886981543507543,Índice
299.6227871087351,217.86471535289814,370.4576207214608,47465.03419579934,11227.856782266646,187.68329636797026,59,6.591137812151493,-1.591666183414812,Índice
343.31908213031363,245.57217413813,422.1062483140106,60305.692710928044,9749.717472559674,221.2839794008256,63,6.421902901725812,-2.066148780091541,Índice
284.7020697719575,193.38737922742735,344.1713918629635,37398.6784444528,9595.026431109258,161.71377387050168,64,6.4270678405734625,-1.046327142019366,Índice
317.80791491732447,251.96822012575777,405.5734887014186,63487.983953342315,14788.033714294412,204.2094144900434,65,6.340884620038525,-1.550854271352323,Índice
308.0383171270177,220.7272459665864,378.9566227557439,48720.51711199393,11699.686204722957,193.41851632634877,64,6.408436996985142,-2.26470771842439,Índice
299.0265300609501,204.0349922144681,362.0043421400499,41630.278047958054,8113.595599573249,178.2234582048149,66,6.416448683968952,-1.5055318858792057,Índice
320.98044240774277,215.115120931765,386.3974115619284,46274.51525348788,10599.933063745744,189.6056246076127,64,6.548082019548766,-2.480526112515445,Índice
291.58491614202103,201.39079870148188,354.37270933745754,40558.2538016208,8308.518366040507,170.26527272540625,54,6.578699793939933,-1.4349950452878923,Índice
337.63005066039636,240.44517221108975,414.49720378859314,57813.880839620615,11448.387018339634,209.69851279127823,62,6.554781400348718,-2.234674986114065,Índice
355.36667043597953,212.6532256317813,414.13387307530814,45221.39437160129,11596.990981413644,184.3264580154111,64,6.80404389700137,-1.3125773455607228,Índice
309.6575818615497,208.689633027868,373.4155606528046,43551.36293330622,9658.430781040013,179.92608485274667,64,6.428753259447959,-1.6765133774778647,Índice
322.9913229099314,198.67905868917487,379.20543645460083,39473.36836161659,8536.35573181947,175.87562101622285,54,6.6567306126089045,-2.2697371304865035,Índice
297.5776742133129,189.9872625476963,353.05471547703763,36095.159930367285,9216.605586285938,162.18938340433877,61,6.571546021611415,-2.0121616305479773,Índice
314.4031414001076,251.8466709556657,402.83505432584633,63426.74567145135,10369.09025242181,200.39297192310437,64,6.461373999150674,-1.6115172324056637,Índice
386.36558999334693,302.3410404499683,490.60011605306033,91410.1047403694,11939.506305992289,260.33798445745055,63,6.48602135621222,-1.3323013540442514,Índice
411.5523177999752,771.1310953482864,858.9700130534006,594643.166213048,29116.188686932262,332.60312912905783,58,7.124214243063341,-53.85276128406979,Medio
330.30769408608876,232.81163437560053,404.10942809232677,54201.25710063831,13262.840154865171,207.70248276790656,61,6.765324545243317,-1.6172206412752252,Medio
320.4644257925948,227.83503042809582,393.2000118117354,51908.80109017135,12185.42211169684,185.75751336778063,58,6.867600002408742,-2.2541405800981225,Medio
338.62408515301155,223.77900336571608,405.8858378818693,50077.04234735317,12870.857649757214,188.40619723691557,57,6.789134573287983,-1.0497325046396042,Medio
295.89827423663536,189.55828854716415,351.40878397266766,35932.344756929946,10752.93365294989,154.80331681932967,47,6.76041722180061,-0.8181589974687762,Medio
330.36080190380267,205.41432773214208,389.01581648073324,42195.04603764787,10793.4249938984,170.1582996112456,52,6.73983108669942,-0.9461466620909811,Medio
336.22544247168196,203.79744550100057,393.16783560969435,41533.39879273329,11047.713762793017,173.95218243328145,51,6.711991000978834,-1.667259813874422,Medio
297.12454346222853,153.2948826423882,334.3386238112211,23499.321044343567,9513.90404845132,133.64720603195013,56,6.82747982623485,-0.6310430108537292,Medio
343.0708443182393,205.05318346555794,399.68038764816737,42046.808049359766,10892.642405538616,175.55938222744334,50,6.754930758407329,-0.8779463622555236,Medio
366.2285063684973,231.84252675664263,433.44466323834826,53750.957212904555,15954.246365647981,192.96240155304457,58,6.830227322809199,-0.814243878362101,Medio
362.3773589677488,219.00632776799944,423.4160151610529,47963.7716024244,14670.323873682886,179.289258252666,59,6.8554952951981525,-1.2462875496043924,Medio
328.6402117632287,202.3522428965438,385.94147094221626,40946.43020526186,13123.667143711145,167.1553695321522,53,6.945286703433131,-1.2239517525917087,Medio
386.0327899433339,223.4782268880107,446.0536209968969,49942.51789300919,13230.12632575038,183.1976106410677,52,6.80263627152937,-1.0181014655883294,Medio
475.6395406298381,238.76714921914424,532.205528115596,57009.751546237094,18269.456869909587,194.5489929209995,59,6.903317274566405,-1.3114691051638503,Medio
352.84524316308057,189.8191065681367,400.6632736365276,36031.293218325634,13984.04761551535,158.66274830840592,56,6.845292042909261,-1.101671196547233,Medio
321.5389561447739,144.05369898663807,352.33332018190373,20751.46819173293,9864.35118604776,116.50588047249035,52,6.912610315541167,-2.9414599489707314,Medio
287.9176172957088,162.288613705924,330.50589781096016,26337.59413859063,9613.642350744678,125.42186198233001,58,6.756893196630351,-1.6706517579487223,Medio
310.25077257263627,157.43540394003116,347.91011525346386,24785.90641376078,12604.449334317967,130.1255161026118,60,6.926275928998589,-0.6784823998459554,Medio
414.56786993654185,208.60953877130353,464.0953118165466,43517.93966637599,16195.171485120663,171.9779374186056,51,6.984929462623823,-0.701513534940843,Medio
329.1020709876962,179.8749982769341,375.0509140550354,32355.015005127043,13810.328826444793,147.38851208163615,59,6.891228577072989,-2.2725474957142473,Medio
304.2994557606562,207.9088739796123,368.5434284527429,43226.09987947031,10938.385954787245,177.0394349101164,53,6.667690865437277,-1.1456127443361765,Medio
315.6720446665544,198.97759148125792,373.14999892221005,39592.08191168236,10968.51777637709,177.60130951795244,59,6.815859089724471,-1.3649584870201041,Medio
300.60011584566365,202.79163966110625,362.6084372472135,41124.44911643996,10839.903213133986,170.46646250083373,51,6.637188554920526,-1.0835340048804372,Medio
335.66455736473677,220.92637579376725,401.8446946175021,48808.46352136887,13019.804902423119,179.94531428590778,55,6.7360891986876545,-1.1216333524950979,Medio
343.6492755126828,220.6593124361493,408.3936296334529,48690.532164794146,15807.568837944254,181.68468596490067,55,6.725384345983066,-1.417396800898712,Medio
411.73171550846126,221.55335156642562,467.55629943981785,49085.88759031619,15087.34502984352,181.48429581518033,54,6.870308712380728,-1.340964691897741,Medio
366.62581845090807,254.40728713097923,446.2483148429163,64723.0677453445,20612.094838030327,195.46541210334146,62,6.834410312123754,-1.1776433109404958,Medio
378.6529912566256,240.41141286724667,448.5261812028546,57797.64743682573,16097.317184143378,189.88077265568242,55,6.892621528567565,-1.1357759415882478,Medio
361.4153325640315,236.9894894020529,431.4081762052173,56164.01808704575,13632.368956786195,191.6388130681158,52,7.012170820414753,-1.5688466590912418,Medio
371.4196221388658,210.1837365614711,426.7666093132402,44177.20311494189,13104.347736175234,178.6906880745243,47,6.832873295903085,-1.1175070241368894,Medio
347.07476846790576,215.2122433195117,408.3836487687371,46316.309674616714,13627.894718680565,178.0451102728662,52,6.77215583355925,-1.6002388121860571,Medio
409.1895301915772,241.46298770980113,475.12150661925136,58304.37443374357,16717.81939711028,198.91425808644692,55,6.852519235931052,-1.513587679076227,Medio
423.0134906274006,268.6270803942394,500.59370450638943,72160.50832113315,21548.87544879,221.8717514396977,49,6.981157411528747,-1.6249007421575994,Medio
409.17978215806926,295.3405570978295,504.632677096699,87226.04466685628,19277.750911568073,248.6451142868089,58,6.778083817085321,-2.223089266783549,Medio
326.50444701457127,207.77457838284775,387.00830655486067,43170.27542217015,13457.653628783006,171.33056073961168,56,6.804397005392644,-0.6944783107665996,Medio
394.9777607459591,288.7834885581714,489.2886006721592,83395.90326382754,22089.97630868764,237.75833819863885,57,6.808704818736907,-1.0068888674912337,Medio
331.18427061752175,196.0081740384559,384.840519428957,38419.20428988962,13549.458850425493,168.23202175238495,55,6.76681603221227,-0.9705752660994106,Medio
369.3114859517534,197.87058529612017,418.9794054381686,39152.76852542917,13017.896898709618,154.131120663981,48,6.933727751104035,-1.2247263899206047,Medio
376.38187822965364,239.6921672946613,446.22377045838067,57452.33506241189,17840.035227959263,196.0631384754221,54,6.77958297077282,-1.8822156868574083,Medio
397.63878986370315,236.45116871753234,462.62918454433594,55909.15518788694,17221.734042293945,189.49449918790572,50,6.928961769510881,-1.3635542618166134,Medio
272.21984323750206,204.94205955877132,340.7416775629909,42001.247776190976,7282.730711854999,180.31953150652484,51,6.34260983189249,-1.6358937134327431,Medio
309.26709650496616,226.87993839725357,383.5630892405497,51474.50644714157,11272.190057526652,197.38919981897396,56,6.819125434466669,-0.9575686932044574,Medio
247.59755118133006,184.56779649189795,308.8200428289361,34065.27150187466,8985.248858188901,153.71577526405983,60,6.771514021992765,-2.1338188443219965,Medio
262.95697450611794,180.03955444117074,318.68575682760985,32414.241163375285,7835.902427841921,149.794360826143,57,6.716028290186772,-1.4253757459547005,Medio
323.2408713834436,236.32556984209944,400.417826643521,55849.77496119303,10352.927906048655,200.3134232976221,51,6.578792875553232,-2.5578288168322563,Medio
301.8566309893393,184.04005778627695,353.53665798925334,33870.74286997616,7869.49767890553,155.22451922794926,59,6.745358753668247,-1.2204063270931937,Medio
276.6519893623294,176.47873775024817,328.1479362971148,31144.74487792087,10005.666691855768,144.87904574011247,54,6.585130110769276,-2.2343759858672776,Medio
250.70914737769738,129.00053141607856,281.9507291788454,16641.137105630674,6082.972359622111,111.97757838816042,51,6.823098057568062,-0.48960876978171564,Medio
282.8069519491268,184.4984619033326,337.6676687446567,34039.68244469547,12821.30801774569,147.649718797053,52,6.779223518929596,-1.009154352612834,Medio
250.9338991965396,134.74855423683186,284.82449795425873,18157.172868916416,7028.990494216434,110.46811603554757,50,6.769962796303037,-2.085570882301335,Medio
272.3536194852082,159.13638223983838,315.43760428819763,25324.388152383952,9444.264745211905,130.82412169297533,50,6.770237255922259,-1.2435414597973942,Medio
270.3507519935086,150.34186560235753,309.3415679410916,22602.676552797337,10042.898394895275,127.67741812202344,56,6.787559591718058,-2.0088295516706616,Medio
262.1070252823892,167.6333568752544,311.1286470893501,28100.942337266406,11917.41556873983,139.2776490093497,53,6.909419763820824,-0.9502898164679978,Medio
256.7027779211295,151.59871316953362,298.1249503598838,22982.16983465853,7967.173857053818,133.78647690905473,52,6.547948917086654,-1.4499417117740663,Medio
293.58163301373776,162.02748280102745,335.3253351982972,26252.905182837243,8204.383859869151,140.50816282591788,49,6.704259668393533,-1.2534165206260819,Medio
274.3660193981492,158.5856553103316,316.90080888283137,25149.410070207305,8890.097244066099,135.6059124436066,56,6.802653068335993,-1.2595875858680703,Medio
270.50335159631624,150.18266701838817,309.3976352488758,22554.83347275606,8231.11560684074,129.93921043929032,63,6.792074327651642,-1.13762053970057,Medio
282.63334078377113,156.98624172097192,323.30525113624526,24644.68008967543,9578.98195019602,129.96274945891278,50,6.896642317719246,-0.9128034736675136,Medio
299.3884980729286,169.7614282263992,344.1691666780028,28818.942513466893,10662.188652085693,141.97945230328014,56,6.697268817190048,-1.546593453854324,Medio
264.7135818803312,149.1998595699701,303.86490176987144,22260.598095698802,9362.725439040085,122.88562032977175,57,6.827056068174483,-0.9327419046734059,Medio
346.12965020582266,174.25156986329606,387.51689556899123,30363.609599823143,12226.966138245356,140.32007859554747,58,6.9018572718867714,-1.5254254203316104,Medio
305.13656707687113,134.242463964801,333.36071109055257,18021.039131340898,10010.774867591299,110.44691189448146,54,7.036540496108863,-1.0653053969031372,Medio
250.590472119549,130.2580539121409,282.4229900806177,16967.160608978207,7720.789152179647,110.83846576888223,57,6.657083975764161,-2.719373429625217,Medio
261.0715948126868,144.6239208264344,298.4534404111474,20916.078475210765,10107.866572082155,123.07843042447304,56,6.7967689572536,-0.9313731801508665,Medio
264.74144186674204,156.5816546134249,307.5806326854137,24517.814561477888,9881.01518011914,129.93236731351266,57,6.833810521928484,-1.0616567827424064,Medio
325.52242432147614,181.94568002409173,372.9196685823373,33104.23047942917,10720.061616287345,157.75905232132322,56,6.7017519021471355,-1.6979311340602377,Medio
250.58103818164298,154.97870835544768,294.63410654524193,24018.400043522906,9111.16011050794,117.76828593176072,53,6.785185123323049,-0.8318402997563207,Medio
287.6339455217258,166.64638552372978,332.42187717495176,27771.017808123575,11055.390277035836,136.44860655026687,54,6.713872320413963,-1.0507421855457106,Medio
359.1933752812579,157.91074229325753,392.37186873876425,24935.802531607595,10357.797148013824,128.48202983627655,57,6.953510990691458,-1.063530036710894,Medio
435.9999311988636,709.5289384739568,817.5609239706982,503431.3145319801,22685.120113038087,311.2277401868646,58,7.13018481589532,-49.91948590697179,Medio
355.00978264318275,259.001165316967,439.4468675595568,67081.60363554685,12411.923068859176,220.77601173567885,60,6.519770945679877,-2.9300239315308523,Medio
320.057378160539,201.76153163397197,378.34434178706107,40707.71564728628,10644.159981410976,175.6731763223621,54,6.620515445670323,-2.584663256938875,Medio
305.76690592730205,187.39598399635727,358.62327807647773,35117.254817962996,10241.326962891133,166.86943687918486,61,6.787142143776569,-1.5676010761464962,Medio
315.93366845866024,173.66472971643626,360.51840620588234,30159.438347482854,10683.426431012038,148.38466883956468,56,6.731715262234508,-2.487364244027068,Medio
333.8931942439073,146.98751421064588,364.81501407730525,21605.329333824826,10268.4818677526,119.39863040305809,51,6.898134500732736,-1.6994915461448272,Medio
267.68198100414577,153.44400368615982,308.54287420315194,23545.062267238223,9627.494246975932,123.86917601482244,54,6.839026834952969,-0.6948723138438603,Medio
395.0064075539095,240.98245952577335,462.7122300174658,58072.545799090985,14733.317470692498,194.35374022583161,54,6.8625362294127905,-1.0012413597689525,Medio
264.8251882254361,172.87904797935636,316.25866873318466,29887.165230248596,8283.37647653888,147.7500782741061,50,6.7686891403413085,-1.1825046893273112,Medio
353.7171433756786,196.8791904433909,404.8175306820289,38761.41562964499,13397.997709510228,155.17767986089223,55,6.763456268575702,-1.7403030170066627,Medio
325.53494685219874,194.0961149147043,379.00699656740613,37673.30182498209,10816.119306498098,157.90088996077233,60,6.80639513321848,-1.5159378852442942,Medio
260.2760564638547,148.81341769870565,299.815041076236,22145.43328716944,7363.1761287629415,127.02046542470906,55,6.683938767253327,-1.1268337880318822,Medio
314.153634787661,152.9050226201923,349.38868354996936,23379.94594248152,10740.839083685583,124.7045216376686,52,6.903208137985186,-0.4041523289323046,Medio
309.8718128455851,148.88154203895948,343.7822769662622,22165.713559898457,8188.716188295662,122.22365654526841,53,6.806192456527821,-1.0214766135428366,Medio
295.37402448450473,142.5936812813013,327.99203082015,20332.957941353332,10991.344992077746,116.89812315692863,57,6.859002120904931,-0.1880076391819616,Medio
332.7218707572854,161.7647590468688,369.9617284932581,26167.837269491516,11147.330464932395,137.8450376829767,61,6.880933371226877,-2.1209895701949333,Medio
311.2907218849616,144.02148552907423,342.992859729852,20742.188294001335,11138.515676405408,119.25288104165602,55,6.8899617991110755,-1.2122179139798746,Medio
359.93785996255525,183.8124963470923,404.15627775375935,33787.033813349815,12385.031059708957,152.70288914222485,60,6.766442445918084,-2.037076918745965,Medio
304.9601547125257,156.09947773494528,342.58975891204085,24367.04694912268,8740.15894161196,135.31659851563094,62,6.815613828532984,-1.6694419844090975,Medio
326.8003350125236,206.8388314836909,386.7567209161806,42782.302209538684,11690.639056449514,172.86984551921816,55,6.689005522162871,-1.5588414027172264,Medio
345.29029737370365,197.98487287719138,398.02437029485804,39198.00988819763,10373.928249276127,169.03070578137874,52,6.680965576213273,-0.9744837331962356,Medio
316.94648691217486,189.6413203117556,369.3493007107981,35963.83036958589,8700.404436238943,160.24911490920533,60,6.59134162647271,-0.7585966149047536,Medio
364.49676926951906,196.46356298390316,414.07224778804834,38597.931580330085,12591.652185201361,162.00088157243397,50,6.951371429340562,-0.837754903634208,Medio
354.7383875824989,212.0020240927853,413.2604285968708,44944.85821943792,11428.756354389247,181.8351441928493,56,6.6476268965514596,-1.7412593195066584,Medio
336.9290402002715,186.59494445250078,385.1478306124912,34817.673295231856,12761.108405341343,155.5333154625193,54,6.797998637149149,-3.091956854943336,Medio
362.891558196221,237.62360553203305,433.76867212389203,56464.977906043256,10574.10027275641,206.89244180421935,54,6.592608964556403,-0.4753283360616567,Medio
309.0618438852216,172.12556709586372,353.76041920176124,29627.210848072682,7873.669711831522,148.5396185823359,59,6.695231735081484,-2.3413504846449875,Medio
291.72349571327555,176.01339062807,340.71001105274723,30980.71368038956,9803.687757966021,154.59718523998805,50,6.731868151827059,-2.284926636525768,Medio
292.8517589845151,163.30274431014018,335.3057396459948,26667.786299223026,9553.549030998427,142.11936547431614,51,6.5432932005460405,-1.7014225843321606,Medio
299.05334749611194,190.110070377142,354.36526848356925,36141.83885880188,13236.950525214606,152.76001999937012,56,6.559137336476459,-0.8314491947764605,Medio
312.3032856508941,185.47598339479836,363.22814131701233,34401.34041626752,9252.040146321411,163.64825024323082,58,6.695351946777269,-1.362675547493007,Medio
278.2038961515448,209.68300065477132,348.3738919573169,43966.960763588824,6969.3852401272825,182.78673526696366,54,6.052722027018518,-3.2515776761796937,Medio
312.54095677936743,214.95718833547076,379.32630080400895,46206.59281709105,8278.276172280803,191.0385779201352,50,6.308249154515202,-3.017245409214343,Medio
343.46759165555494,242.19480690814373,420.27171093346254,58658.32449327302,9657.40796794939,215.90833305386687,53,6.6141136446490405,-4.1366222134661665,Medio
453.1071026703728,283.38232812471426,534.4264125057095,80305.54389338323,10566.15133204107,247.52026792341573,47,6.691047997914731,-1.7776272990067032,Medio
348.1560266806694,236.15211765333981,420.6904343887889,55767.82267215685,6772.243323632418,210.30802249039328,55,6.38133569038395,-1.9365699930730156,Medio
384.4253236643736,234.45815866175226,450.28153153057247,54970.6281630594,13918.928907271607,197.482775697766,52,6.662493984129265,-5.108788085818568,Medio
363.56218541494513,203.48710135572486,416.63468780437125,41407.00041815504,9114.74269898013,177.1210494382916,56,6.643276828515832,-1.5971177468621287,Medio
357.9288770282971,235.3551150588808,428.374965649391,55392.03018437902,11179.5258715389,203.60112696210598,56,6.450258460457369,-2.168302417864839,Medio
326.6633084074292,184.42935592838322,375.1307830448541,34014.18732815827,11427.559121168926,156.76562234086467,57,6.621842027503184,-1.267443375806081,Medio
338.08386704412163,192.77833140177532,389.1840004593714,37163.48505805271,9285.009193857,171.45731597030954,55,6.578743045004992,-1.7743829650276575,Medio
321.16034638188506,181.59767692659315,368.9467229198108,32977.7162651353,9142.849759645109,154.7558491968619,54,6.593760511588697,-2.13054219686462,Medio
331.2925163984664,214.06831570598783,394.4362752217734,45825.243789198474,9263.19896181212,189.86890263083586,57,6.53208232983317,-2.51069371837785,Medio
291.3108713734759,175.44511418735848,340.06324687120946,30780.98809221526,7936.57592415693,152.1754226492603,56,6.4528089628143475,-1.5630173313586113,Medio
340.8852609531604,203.14774407847148,396.8271249036241,41269.00592417214,11116.499854871012,170.78498245428707,57,6.599982979190644,-1.509817112140035,Medio
328.67528495812724,201.7133492355169,385.6367697745065,40688.275259809605,8733.510895120004,172.50923518987713,53,6.57539074318578,-1.5035876352589461,Medio
302.80447682837746,187.02785408882482,355.9072482998598,34979.41820507075,7551.70376109292,168.96846673251113,51,6.487196566020871,-1.9021498684652858,Medio
300.47271775824476,175.36406042661986,347.9028712246234,30752.553689311186,5725.589326082054,162.78041019217696,52,6.6021934679183065,-1.6444581585871545,Medio
281.95844032855416,176.2044149526274,332.4884327631693,31047.995848797695,8982.05874701254,149.5686925033523,58,6.393069315522831,-2.1650435727623267,Medio
306.6006376233629,176.29729289566654,353.67313507445425,31080.735482340442,7419.881423883717,156.61860456010666,54,6.582230105203184,-1.7894078131495161,Medio
281.7573704581705,185.24433826333555,337.1982809358963,34315.46485862108,7142.575778637144,164.26413301861723,57,6.291310029247272,-2.5711334559941315,Medio
291.4873133658701,180.11153088491704,342.6441556643882,32440.16355770843,7258.45979659833,160.10914353727816,48,6.435712043209993,-2.6875327789880554,Medio
288.864110506923,183.25853319941754,342.0908714499084,33583.689990402025,8222.836580559511,161.75121785907362,59,6.354323527900756,-2.332709359212281,Medio
296.2172217548752,193.2592099727504,353.6859690508919,37349.12223929163,7823.569471223076,165.602359827197,57,6.351301781289023,-2.5244864081764713,Medio
297.74851506276923,202.56559585346824,360.12081145853625,41032.82062347062,9651.422620604118,177.5712756095278,54,6.29393493097455,-3.0192993747674146,Medio
296.8996109018519,187.50302464932892,351.1506275180466,35157.38425264685,8171.541592001823,165.0263890943749,60,6.39951531027646,-2.0652709423802085,Medio
317.55991265546913,216.22651982809884,384.1851194446765,46753.90787697123,10299.554482775553,183.89316906162858,49,6.46346967134779,-1.559770573711635,Medio
312.96489113521307,203.8669308907834,373.5086994891861,41561.72551082746,7962.910610111663,178.9697005111505,51,6.452424731828548,-1.6080245580716972,Medio
316.10951000106434,206.4294828236233,377.54251905175096,42613.131378828584,10155.357437307643,180.51226349278932,59,6.72689189145271,-1.6977924254311052,Medio
337.77749549853644,194.73287209065137,389.8904050344632,37920.89147267399,8761.134780599581,165.59828121904022,56,6.660689324797841,-1.5666780138748915,Medio
352.0078044362143,244.04668952460776,428.33197528543735,59558.78666792029,8264.15603581271,215.80692397722476,55,6.510038705683831,-2.0621856949909403,Medio
