MAV,STD,RMS,VAR,WL,DMAV,SSC,Entropy,MeanD,Dedo
1012.8596903918171,1149.2150654541706,1528.15181261201,1320695.2666668338,45516.90620859862,1006.4200693361427,37,6.260950887919897,-1.0610108456957248,Anular
1021.1040589452401,1097.3535930903292,1490.748783804389,1204184.9082682556,53298.39790194694,931.5324750298769,45,6.391335847015052,-3.144418708217576,Anular
1203.8883435330781,1370.7118965644265,1807.6938143689695,1878851.1033832473,79551.25215231247,1072.3952961344492,43,6.5601801821174055,-3.7498008410568424,Anular
1021.6761110686122,1041.967248772139,1426.4203069694347,1085695.7475137808,72864.04199768926,869.1042913392636,46,6.549216231227023,-10.140555804072578,Anular
899.355743725618,883.1363337432173,1257.2188562485785,779929.7839774112,44993.63339277464,714.7117703076028,47,6.3592877526397436,-11.161733145597369,Anular
911.1403316206802,952.296144553222,1313.1408370871115,906867.9469309311,47707.89253448614,775.6526188445843,42,6.271554835512005,2.287989018433722,Anular
900.0465405208066,965.0797737779998,1309.5003435746548,931378.9697553953,59156.41589734099,804.5845035320294,46,6.449492816605676,-8.325244676060022,Anular
1040.2369312483365,1025.8910806962044,1453.1876163496047,1052452.5094520263,59259.24733513264,842.764198629239,42,6.414487878156708,-1.2155800863366848,Anular
935.7270714531063,803.2054993321084,1227.7955582037441,645139.0741573415,48650.117717905516,649.1018554491952,48,6.562990683910436,-2.163355596139476,Anular
1166.3922701853353,1123.4945718879878,1605.9366669381359,1262240.0530617733,70904.62132122711,878.3602647941364,43,6.5007195661926795,-12.496410729922976,Anular
1106.2646973466458,834.3514196963108,1381.9453739242742,696142.2915492493,41843.55099274717,710.879125578678,44,6.470823245817584,-16.10918542783946,Anular
1014.4096532708437,950.9481255164171,1358.0230830699131,904302.3374231874,70496.67962570678,778.0593419560784,44,6.6092020174364965,0.5247548184789192,Anular
744.6659452516927,735.3541805165019,1032.0431408898532,540745.770803096,33971.17459310371,576.1065356223343,43,6.562605336197982,-9.617733903141522,Anular
908.7996210000806,945.5166895379176,1304.1992896434622,894001.8101947429,50402.43825999038,767.213135153865,45,6.483693556419781,-4.7386490280548195,Anular
1066.7705257808655,1084.0521916129105,1479.1486082562071,1175169.1541407546,68543.8153120163,855.1842714725159,41,6.561114089598216,-11.469767471893647,Anular
849.4979228446809,832.3114723382544,1180.1411079177217,692742.3869858728,40436.74048137222,659.6521706609166,41,6.5182437652694345,-12.085185661177771,Anular
1008.2008576555103,988.7899145774953,1406.5107922632296,977705.4951701706,56962.58540895761,784.0674535145095,41,6.343671698826247,-8.699672386353358,Anular
968.3351066576831,895.8196997402033,1305.784687974098,802492.934442628,50719.34583008091,755.5414453905382,40,6.492134879053171,-0.5767280224731328,Anular
891.6956253760635,901.2586212741599,1250.079081304305,812267.1024209996,60517.882186403054,701.4190499563609,42,6.59723345028655,-5.616505738418434,Anular
1040.9374403483826,1126.035814588891,1521.79525592807,1267956.6557368676,72200.97650299044,931.367240013849,44,6.460069561738214,-2.6233207007732102,Anular
789.6767473154595,911.6879106222543,1200.1484175589653,831174.8463747716,43845.99059385831,754.8567647875755,44,6.325433204032416,-11.728277800290089,Anular
747.7863733936323,754.0893666741387,1057.6005411908138,568650.7729310036,33009.40982831727,645.1568718464936,45,6.368961501332222,-12.99753709115036,Anular
874.1316627472535,914.9711161389929,1251.5033922144858,837172.1433686345,41310.27480946742,777.9157050776735,37,6.546375956732533,-7.894230347735248,Anular
796.2653260147894,838.0181550503164,1150.7303816700626,702274.4281939362,42889.7363383033,698.3244684949229,45,6.357045101159675,-6.425686443926987,Anular
922.0872032929386,985.7446298216004,1325.028641387795,971692.4752221239,58988.22828616627,815.6466290186537,42,6.604085947205795,-12.517459023640614,Anular
957.4031607542647,984.9307490744923,1369.3458919744373,970088.5804724405,49756.74075278054,848.6039197860728,47,6.383629385268316,-1.3504782178832808,Anular
839.4260508474717,891.921697059224,1206.1306569922165,795524.3136850062,52700.59143479,769.9078948742356,44,6.48478614123915,-8.148835815785125,Anular
926.4556360809264,1022.5756037961527,1367.0330164029197,1045660.8654790662,56902.543339634525,858.7366798909312,48,6.385934500983391,-16.120562563045027,Anular
916.6537512097085,895.012914333129,1278.1760038141344,801048.1168230808,46378.43443470763,729.9190489157593,53,6.359958165096999,-2.126518855353789,Anular
868.971262694555,851.8725677189516,1207.2025724977511,725686.8716320798,51119.93177497573,709.4191521904926,44,6.452364343436613,-6.5103961967001895,Anular
822.5271766664304,828.2491459051384,1154.7456012179705,685996.6476925913,48922.39664156264,669.0676144015558,48,6.516828178767693,4.587567556587967,Anular
935.8561435682278,914.1148541245911,1298.1963917240253,835605.9665312226,51946.958373327434,767.842670826911,40,6.479049772329908,-4.258822274490679,Anular
1018.3217442063788,1015.6301792513299,1426.7582978595724,1031504.6610060884,56788.722850458165,879.3960887007827,43,6.387974540537701,0.5153219717520462,Anular
822.2165812455821,835.9592194176453,1163.5792127596194,698827.8165293587,45667.43276222693,707.1225341010376,38,6.401125918638495,1.1497201652088442,Anular
845.5105417897739,825.8092318414851,1160.5421282530197,681960.8873946238,56393.0360687873,648.2137203609004,46,6.602090240957006,-6.019391918814274,Anular
851.6786752609243,827.6121873404463,1175.5903104572897,684941.932634438,46341.40149000913,696.0290019472957,43,6.407886806632318,-13.173681962200988,Anular
746.0367332894763,802.5617862638345,1081.1371592069136,644105.4207709968,39373.68138518387,632.5696628437522,44,6.481218109824864,-0.4152180279183439,Anular
582.2343318429539,671.7770551563893,878.9327198996218,451284.4118345906,39889.77831855414,520.1312708495907,43,6.369826728632742,-10.92762641764002,Anular
987.8329072312347,1008.1445734041213,1378.5287311666118,1016355.4808841776,70651.4721808588,878.1164940745169,46,6.5057983247026145,-0.31792753105106103,Anular
995.184058962295,932.9062578876901,1340.344532924204,870314.0860060134,58118.10718280117,784.2018395635399,46,6.491137211953983,-15.373753336221593,Anular
144.75961616771204,57.43349124232659,155.73680486418655,3298.605916282405,1312.29700192354,40.61116802299017,31,4.8606365127953035,-2.349270477353521,Índice
148.9540345241566,70.85434311920659,164.94739264346646,5020.337938854259,2719.594293642091,43.763732862788,39,6.145792228864088,-1.6717528363253522,Índice
157.6718183229979,63.97890430549093,170.15787519069355,4093.300196131166,1946.3778991718855,47.762600134584055,35,6.122471251103866,-1.2407125757649289,Índice
139.87151077969978,53.62131139702834,149.79747849591044,2875.2450359370814,2126.450796685451,32.89754499461106,41,6.13108231157145,-1.1060041293050595,Índice
134.04723167520706,35.40269260187267,138.643467077426,1253.35064346269,1326.485333859096,25.3969279573537,39,6.144302909012285,-1.2373006889292555,Índice
132.0873183806306,32.6768655367805,136.0692368549736,1067.777541308833,1009.1861427014576,21.50401382811145,35,6.171756599739438,-0.8831808990927691,Índice
123.2032702815901,13.839749157873717,123.9781612415324,191.53865675286625,404.91839108302656,8.995074904441246,35,6.320879797992227,-0.905637997478086,Índice
148.29233325718283,71.09037710090743,164.45199244523795,5053.841716349223,1849.4270778964667,47.99376236954051,33,5.840333741247319,-3.481321062729936,Índice
141.79593841663558,42.071274741410754,147.90564664616957,1769.9921583672667,1617.4521199331505,31.73271415674224,39,6.065324552032334,-0.8738495246495134,Índice
167.2225164098159,84.15366133671715,187.20365570897928,7081.838716374882,4688.003256492182,63.23538877211725,39,6.284864980269935,-0.8426956873429551,Índice
168.53107741982691,87.47229557988148,189.87924202055856,7651.402494014152,2818.8855461948256,67.59476690365392,39,6.093580488661539,-3.201035462868914,Índice
150.9587313173554,61.46377410350263,162.99182215065844,3777.7955270464004,2052.9186290712214,43.41980634147594,37,6.426986242969603,-1.5549326084004604,Índice
133.6587021141621,52.520980630802306,143.60745822297466,2758.4534064211107,1578.6377400803597,26.65882443047337,36,6.128309238193542,-1.5836241500014794,Índice
148.07200412923865,60.778201282348846,160.06032662083064,3693.989751117711,1649.2862708499138,45.16629447458543,43,6.205107173979822,-0.7424054188209359,Índice
138.50145395390953,67.35573533430521,154.01119384568085,4536.795082424972,1806.6425170609384,33.35237297181458,38,6.088399682935481,-1.190380202329143,Índice
148.1131183066246,72.35034533642711,164.8395228239042,5234.57247030026,2022.4566294805866,45.8536170929691,32,6.174847861654539,-4.841907555949036,Índice
145.36218809226168,80.23327167631442,166.03476627157139,6437.377883885277,1488.4439398219815,48.35119560016834,34,6.4249983464849505,-0.8340743554041712,Índice
148.80367658195263,57.22328225305909,159.42721911931983,3274.5040318132674,1720.2647541451336,43.629854885536716,35,5.946382634201665,-1.025335704296559,Índice
144.2592627674469,48.427766388171754,152.17090211848858,2345.248557347338,1519.8857299792758,36.01325390649586,36,5.75261704404554,-0.8060458118504508,Índice
163.08982885175624,93.44253939176392,187.96223142662598,8731.50816798135,2321.4209250791273,66.76706644032986,34,5.659149502931048,-0.7430121447125067,Índice
126.19176065670273,30.95299023429509,129.932475009456,958.0876044443672,841.6788486731072,14.245528841872883,37,6.325855705365951,-0.3220273063808413,Índice
160.28353932397567,87.36057750978676,182.54501768348516,7631.870502843461,2986.063947283943,61.15395185072208,35,6.144560588513785,-1.2301641528031135,Índice
172.97706981238628,97.68287252686682,198.65298957221682,9541.943585100113,2911.1961285869065,70.98496608761934,40,5.678775627427619,-1.3360986972307562,Índice
148.01413628936237,53.427076797055804,157.36148536590662,2854.4525350784984,2117.399226938491,36.602790212229905,38,6.19338617773905,-3.410515732818094,Índice
147.78398038382025,48.85752036170825,155.6507698470525,2387.057295894736,1909.451085960588,34.16969820221716,35,6.1821398442910835,-1.065827754885081,Índice
130.0251117858145,29.406599105477962,133.30895606021315,864.7480709502972,806.6293573606079,18.547284065946613,40,6.222689842834185,-1.7905585562318949,Índice
149.37322526766465,54.84184579456496,159.12255803945382,3007.6280501548426,2686.186788188256,37.43451256121085,37,6.2696419946082775,-2.2166431377551437,Índice
133.8628964204931,35.36433063870412,138.455447417598,1250.635881523587,1526.6205327463013,22.840839409552053,42,5.750333633314787,-1.4134616932197421,Índice
127.14047570483872,21.580646706943213,128.95900462838017,465.724312289899,834.0918549172701,13.429323929241978,36,6.321081316850409,-1.551198946168171,Índice
140.8790694757738,38.87886810113529,146.14540225811206,1511.566384825475,1465.683400550568,28.60888872832469,37,6.135464235331364,-1.7760428072569538,Índice
152.12323562523417,60.82677411733626,163.8333765342458,3699.8964495214477,3027.282817618764,42.375552325457555,40,6.417521215408526,-1.5752483913260416,Índice
147.28425124410455,44.884084516773996,153.97152888584773,2014.5810429089108,2312.0621896404764,32.99460287479147,33,6.258025753820956,-1.111939918263997,Índice
164.1888168324981,68.54196790124398,177.9212436350162,4698.00136377516,3037.2199472312445,46.57887942436412,39,6.3583728988345865,-1.1674996465542666,Índice
136.25597929754673,42.09793147003357,142.61110660951036,1772.2358340556432,1671.800454380587,29.712464569450553,36,6.295098348782849,-0.911068080896479,Índice
131.03053999172877,33.03950470514474,135.1318292693669,1091.6088711612815,1105.3871732366842,20.7605733936047,40,6.423792841562574,-1.0647647441519135,Índice
132.10293008270287,36.76207998653395,137.12269929290267,1351.4505249363199,1588.203493491013,23.328679309037188,36,6.417315310463875,-1.0147859075734773,Índice
134.08329738436382,44.911388562940175,141.40496264316585,2017.0328226513936,1881.8398523091585,24.77797041517381,40,6.396038509668149,-0.9097827367468688,Índice
127.46281474539529,22.575489257150277,129.4465984799086,509.6527151997076,710.6860804147016,15.147277896224328,35,6.289210596239195,-1.4574177963043564,Índice
131.34296423742043,30.462933682702236,134.82939065066273,927.9903285567144,1138.831205109311,19.667213255060915,40,6.119201327460787,-1.429727123420609,Índice
138.00000087469047,44.37093612330023,144.95785668211488,1968.7799724579895,1594.0580298051154,31.724027878784334,39,6.246619610615669,-1.3175617591824524,Índice
173.06170914978796,110.397636172855,205.2754082845771,12187.638072554064,2133.727273847397,80.1886734478305,31,5.699228303260053,-1.619172659895385,Medio
227.81456089964854,253.9001390156607,337.2977004760051,64465.280592171825,8924.67739470935,168.07995751877476,35,6.211818833539819,-1.6443482072151916,Medio
185.29488289173432,179.05065354978413,255.01531857522667,32059.136536604827,4680.622916639285,108.04596177021966,35,6.345245454211741,-3.301001728033439,Medio
339.9170738897069,455.6149044000446,564.4352491691891,207584.9411114618,15002.920671143907,298.1701798825771,32,6.210703168588996,-1.136214242804972,Medio
161.61942920333382,82.99789360060029,181.6851403889377,6888.650342136567,2587.924454105573,61.711029847344,31,6.093714881176277,-1.517794833571943,Medio
251.19491187102747,218.9779790181316,331.71084716257906,47951.35529486529,8497.662075839664,176.37569104743582,34,6.233156532469172,-0.8920684327335437,Medio
163.21300237720902,123.4496118580593,204.64185987448496,15239.806667905495,4330.859262300691,75.14000024477895,38,6.1013360453110765,-3.934755245843863,Medio
201.68478747893354,178.25121836671292,269.1658417214937,31773.496849217576,6426.370375659512,125.69382920654583,34,5.909966710083443,-1.9086907114433855,Medio
177.9421275377238,139.13027968048718,225.87747890531747,19357.234723970585,5403.059554094599,87.14163238944822,32,5.785165261281168,-2.410379251434222,Medio
168.82038963275463,89.40453882778797,191.03270798155103,7993.171563009449,3050.497837384912,62.894047527580184,31,6.187867391153912,-1.0286048316366574,Medio
232.43740316210182,271.0203307052704,354.0413492014801,73452.01965559414,9746.248078770186,162.31358132343126,34,6.207499211028206,-0.8310338598493584,Medio
183.45632618885975,124.82198649304824,221.89355991281948,15580.528312070719,4602.940506560224,90.35646603063135,38,6.1685445220655035,-2.399809917796221,Medio
161.22308352205235,118.13440979650441,199.54265703162164,13955.738777968438,5405.101183599334,74.97006573914854,36,6.257636663013925,-3.2941509092639865,Medio
180.206921994064,120.60496090858372,216.84116613396,14545.556595761009,5233.736164620204,86.9452971412346,36,6.090008653588662,-3.87850927872612,Medio
170.92307566112783,95.70849346816068,195.89490426094437,9160.115721944956,3775.331927194834,72.2388054941203,35,6.102086285751611,-3.7366490680635547,Medio
151.03199066254007,88.7260925297674,175.16558366040528,7872.3194956008465,3233.9209783475185,54.202052184788386,38,6.218146379437411,-5.524303697934843,Medio
167.97836363814196,118.9358356165234,205.82143630911847,14145.732993800679,4713.212329323412,78.07978611264832,37,6.182020140758708,-7.782203901131648,Medio
183.1741870351338,134.52160293060368,227.26382125406838,18096.061655019003,5378.24558187453,89.23512907157212,35,6.179571383264807,-1.4963891221553118,Medio
202.06233367455724,174.18620950676106,266.77710222644936,30340.83558233326,7741.27981768627,118.79597040904345,39,6.083604873632591,-1.9338622361979012,Medio
209.17472446150396,182.46952703826986,277.57736516350894,33295.1282975699,5966.313497034951,123.66550990864074,31,5.886605059234723,-0.17903820865403539,Medio
135.20276459324992,56.75906003803227,146.63348338649914,3221.5908964009514,1329.8426393332443,28.063944770963992,31,6.332613321985995,-5.070391468373311,Medio
145.99941502995836,48.33958388163642,153.7938378444981,2336.7153698497636,1541.0237639112602,35.646893315963254,32,6.173209746630433,-0.7114767270700149,Medio
186.91563596325813,183.77770391499118,260.04776772234976,33774.24445626616,8187.598286932214,101.99643762312122,39,6.236208450847002,-1.3890559494813304,Medio
249.50479369888095,373.46148286310574,445.17353713926093,139473.47918230982,10285.242785155811,179.82641050853482,31,6.188146950567631,-2.6246731516045227,Medio
173.6127024625868,204.44072627412245,263.7816373508811,41796.01055949066,5792.144765124028,85.54025204946434,33,6.275818137487047,-3.9193571648138485,Medio
158.47142308145771,79.27463860769146,177.19384938491075,6284.468326380084,3011.659883834513,54.820203813972775,32,6.106630813135319,-1.3445240877342357,Medio
144.49606754322213,64.38014446301726,158.18949565800628,4144.803001078973,2554.9803844228213,42.59418475321736,32,6.267790829960765,-1.4960174153234922,Medio
163.88423009029708,68.85500848146856,177.76122486434588,4741.012192983107,3334.7656157006368,52.270704949958,31,6.19178437790836,-3.061834331162447,Medio
125.3449246725556,25.81330634687173,127.97529810758824,666.3267845574484,687.7033573661189,14.1602549333181,34,6.003281688919995,-1.2075467116341683,Medio
130.1914834996998,63.72695409056869,144.9515334638239,4061.12467766145,1472.1180066994436,26.67567206136,33,6.335350917495982,-5.821989077872658,Medio
178.79990996916084,130.9917973676444,220.6704472701151,17158.850977606013,5987.026211214704,92.01439011383933,33,6.301062264861495,-2.479929576637765,Medio
146.5324200804347,50.49738852643404,154.9894718444405,2549.986247989632,1851.455392269039,38.46483702170011,35,5.957243897215045,-2.6721769502248724,Medio
152.80811113742863,58.18824714440208,163.51205134523502,3385.8721057380167,2598.380922748724,41.11999179685891,37,5.949984066968904,-0.9931098189766487,Medio
157.39181743212916,59.01161336528494,168.09091202846915,3482.370511973876,2666.8383572051416,47.04664271543264,29,6.1837919658409115,-2.6304087676785475,Medio
136.89885848890546,37.78546408077653,142.01774097402412,1427.741295799653,1514.7218615276254,27.851118173781632,33,6.185706116058143,-1.634916901282105,Medio
169.15111063563447,85.91431520953388,189.71918138973666,7381.269557923146,4029.620350380076,63.87935941214899,38,6.108251022132156,-3.067667839071245,Medio
232.68265007290861,200.22915836016904,304.90238852100055,40091.71585762165,8432.260910100356,144.2732744762453,31,6.244540047389517,-1.3679775967238064,Medio
141.60627462412026,49.03504857185107,149.8558407315696,2404.4359884437936,1772.743805953416,34.149877432358444,36,5.927045552847545,-2.4727723785770355,Medio
136.48739756377782,27.939881283130468,139.31779017716354,780.6369661154243,1310.3280233382939,21.4342247245854,31,6.106450473486321,-1.273488673722665,Medio
181.15574336018503,88.40547460372521,201.57611786194104,7815.527939909904,4582.430249877872,68.86671953909695,36,6.2032208534552336,-1.280258963974869,Medio
